0 0.3449554896142433 0.16448598130841122 0.3456973293768546 0.16542056074766356 0.3449554896142433 0.16635514018691588 0.34421364985163205 0.16635514018691588 0.3434718100890208 0.16728971962616823 0.34198813056379823 0.16542056074766356 0.34124629080118696 0.16635514018691588 0.34198813056379823 0.16728971962616823 0.34198813056379823 0.16822429906542055 0.3434718100890208 0.17009345794392525 0.3427299703264095 0.17102803738317757 0.34198813056379823 0.17102803738317757 0.33902077151335314 0.16728971962616823 0.3397626112759644 0.16635514018691588 0.33902077151335314 0.16728971962616823 0.33827893175074186 0.16728971962616823 0.33827893175074186 0.1691588785046729 0.33902077151335314 0.17009345794392525 0.3375370919881306 0.17196261682242991 0.33382789317507416 0.17196261682242991 0.3330860534124629 0.17289719626168223 0.33086053412462907 0.17289719626168223 0.3301186943620178 0.17196261682242991 0.3293768545994065 0.17289719626168223 0.32863501483679525 0.17289719626168223 0.327893175074184 0.17196261682242991 0.3271513353115727 0.17289719626168223 0.3264094955489614 0.17289719626168223 0.32566765578635015 0.17196261682242991 0.32566765578635015 0.17289719626168223 0.3249258160237389 0.17383177570093458 0.32344213649851633 0.17383177570093458 0.32270029673590506 0.17289719626168223 0.32344213649851633 0.17196261682242991 0.32270029673590506 0.17289719626168223 0.32344213649851633 0.17383177570093458 0.32270029673590506 0.17476635514018693 0.3212166172106825 0.17476635514018693 0.31973293768545996 0.17289719626168223 0.3189910979228487 0.17289719626168223 0.3182492581602374 0.17196261682242991 0.31750741839762614 0.17196261682242991 0.3167655786350148 0.17289719626168223 0.31602373887240354 0.17196261682242991 0.3167655786350148 0.17289719626168223 0.3167655786350148 0.17383177570093458 0.31750741839762614 0.17383177570093458 0.3182492581602374 0.17476635514018693 0.31750741839762614 0.17570093457943925 0.31602373887240354 0.17570093457943925 0.31528189910979226 0.17476635514018693 0.31528189910979226 0.17383177570093458 0.314540059347181 0.17289719626168223 0.31305637982195844 0.17476635514018693 0.31231454005934717 0.17476635514018693 0.3115727002967359 0.17383177570093458 0.31305637982195844 0.17196261682242991 0.3115727002967359 0.17383177570093458 0.3108308605341246 0.17383177570093458 0.31008902077151335 0.17476635514018693 0.3086053412462908 0.17289719626168223 0.3078635014836795 0.17289719626168223 0.30712166172106825 0.17196261682242991 0.306379821958457 0.17289719626168223 0.3056379821958457 0.17289719626168223 0.30489614243323443 0.17196261682242991 0.30415430267062316 0.17196261682242991 0.3034124629080119 0.17289719626168223 0.3026706231454006 0.17196261682242991 0.3034124629080119 0.17289719626168223 0.3026706231454006 0.17383177570093458 0.3034124629080119 0.17476635514018693 0.3026706231454006 0.17570093457943925 0.3034124629080119 0.17570093457943925 0.30415430267062316 0.1766355140186916 0.3056379821958457 0.1766355140186916 0.30415430267062316 0.1766355140186916 0.3034124629080119 0.17570093457943925 0.30415430267062316 0.17476635514018693 0.30415430267062316 0.17383177570093458 0.3034124629080119 0.17289719626168223 0.30415430267062316 0.17196261682242991 0.30489614243323443 0.17196261682242991 0.306379821958457 0.17383177570093458 0.3056379821958457 0.17476635514018693 0.306379821958457 0.17383177570093458 0.306379821958457 0.17289719626168223 0.30712166172106825 0.17196261682242991 0.3086053412462908 0.17383177570093458 0.30712166172106825 0.17570093457943925 0.3078635014836795 0.17476635514018693 0.3093471810089021 0.1766355140186916 0.3086053412462908 0.17757009345794392 0.30712166172106825 0.17757009345794392 0.306379821958457 0.17850467289719626 0.3034124629080119 0.17850467289719626 0.3026706231454006 0.17757009345794392 0.3026706231454006 0.17850467289719626 0.30192878338278933 0.17943925233644858 0.29821958456973297 0.17943925233644858 0.29747774480712164 0.18037383177570093 0.2959940652818991 0.18037383177570093 0.2952522255192878 0.17943925233644858 0.29451038575667654 0.18037383177570093 0.29376854599406527 0.17943925233644858 0.293026706231454 0.17943925233644858 0.29376854599406527 0.17943925233644858 0.29451038575667654 0.18037383177570093 0.29376854599406527 0.18130841121495328 0.2922848664688427 0.18130841121495328 0.29154302670623145 0.18037383177570093 0.29080118694362017 0.18130841121495328 0.2900593471810089 0.18130841121495328 0.28857566765578635 0.17943925233644858 0.2878338278931751 0.18037383177570093 0.2870919881305638 0.18037383177570093 0.28635014836795253 0.17943925233644858 0.28560830860534125 0.18037383177570093 0.28560830860534125 0.1822429906542056 0.28486646884273 0.18317757009345795 0.2818991097922849 0.18317757009345795 0.2811572700296736 0.18411214953271027 0.27967359050445106 0.18411214953271027 0.2789317507418398 0.18317757009345795 0.27818991097922846 0.18411214953271027 0.2767062314540059 0.1822429906542056 0.27596439169139464 0.1822429906542056 0.27522255192878337 0.18130841121495328 0.27596439169139464 0.18037383177570093 0.27596439169139464 0.17943925233644858 0.27596439169139464 0.18037383177570093 0.27522255192878337 0.18130841121495328 0.2737388724035608 0.17943925233644858 0.2744807121661721 0.18037383177570093 0.2737388724035608 0.18130841121495328 0.27299703264094954 0.18130841121495328 0.2737388724035608 0.1822429906542056 0.27225519287833827 0.18411214953271027 0.271513353115727 0.18317757009345795 0.271513353115727 0.1822429906542056 0.2707715133531157 0.1822429906542056 0.271513353115727 0.18317757009345795 0.27002967359050445 0.18504672897196262 0.2692878338278932 0.18411214953271027 0.2685459940652819 0.18411214953271027 0.2678041543026706 0.18317757009345795 0.2685459940652819 0.18411214953271027 0.2678041543026706 0.18504672897196262 0.2685459940652819 0.18598130841121496 0.2678041543026706 0.18691588785046728 0.26483679525222553 0.18691588785046728 0.26409495548961426 0.18785046728971963 0.2626112759643917 0.18785046728971963 0.26186943620178044 0.18691588785046728 0.26112759643916916 0.18785046728971963 0.2603857566765579 0.18785046728971963 0.2596439169139466 0.18691588785046728 0.2589020771513353 0.18691588785046728 0.2596439169139466 0.18691588785046728 0.2603857566765579 0.18785046728971963 0.2596439169139466 0.18878504672897195 0.25741839762611274 0.18878504672897195 0.25667655786350146 0.18785046728971963 0.25741839762611274 0.18691588785046728 0.25667655786350146 0.18785046728971963 0.25445103857566764 0.18785046728971963 0.25370919881305637 0.18691588785046728 0.2529673590504451 0.18785046728971963 0.2529673590504451 0.18878504672897195 0.2522255192878338 0.1897196261682243 0.2507418397626113 0.18785046728971963 0.25148367952522255 0.18878504672897195 0.25148367952522255 0.1897196261682243 0.2522255192878338 0.1897196261682243 0.2529673590504451 0.19065420560747665 0.2522255192878338 0.19158878504672897 0.25148367952522255 0.19158878504672897 0.2507418397626113 0.1925233644859813 0.24925816023738873 0.19065420560747665 0.25 0.1897196261682243 0.24925816023738873 0.19065420560747665 0.2470326409495549 0.19065420560747665 0.24629080118694363 0.1897196261682243 0.2470326409495549 0.18878504672897195 0.24851632047477745 0.18878504672897195 0.24925816023738873 0.18785046728971963 0.24851632047477745 0.18878504672897195 0.24777448071216618 0.18785046728971963 0.24777448071216618 0.18691588785046728 0.24777448071216618 0.18785046728971963 0.24554896142433236 0.19065420560747665 0.24629080118694363 0.19158878504672897 0.2470326409495549 0.19065420560747665 0.24925816023738873 0.19065420560747665 0.25 0.19158878504672897 0.25 0.1925233644859813 0.24925816023738873 0.19345794392523363 0.24851632047477745 0.1925233644859813 0.24777448071216618 0.1925233644859813 0.24777448071216618 0.19345794392523363 0.24629080118694363 0.19532710280373833 0.24480712166172106 0.19532710280373833 0.2433234421364985 0.19345794392523363 0.24406528189910978 0.1925233644859813 0.24480712166172106 0.1925233644859813 0.24554896142433236 0.19345794392523363 0.24406528189910978 0.19158878504672897 0.24406528189910978 0.1925233644859813 0.2433234421364985 0.19345794392523363 0.24406528189910978 0.19439252336448598 0.24258160237388723 0.19626168224299065 0.2410979228486647 0.19439252336448598 0.2403560830860534 0.19439252336448598 0.23961424332344214 0.19532710280373833 0.23887240356083086 0.19439252336448598 0.2381305637982196 0.19532710280373833 0.23738872403560832 0.19439252336448598 0.23664688427299704 0.19439252336448598 0.23590504451038577 0.19532710280373833 0.23664688427299704 0.19439252336448598 0.2381305637982196 0.19626168224299065 0.23738872403560832 0.197196261682243 0.23516320474777447 0.197196261682243 0.23367952522255192 0.19532710280373833 0.2344213649851632 0.19439252336448598 0.23367952522255192 0.19532710280373833 0.23293768545994065 0.19439252336448598 0.2314540059347181 0.19626168224299065 0.2314540059347181 0.19813084112149532 0.23219584569732937 0.19906542056074766 0.23219584569732937 0.2 0.2314540059347181 0.20093457943925233 0.2314540059347181 0.20186915887850468 0.23219584569732937 0.202803738317757 0.2314540059347181 0.20373831775700935 0.23071216617210683 0.20373831775700935 0.22922848664688428 0.20186915887850468 0.228486646884273 0.20186915887850468 0.22922848664688428 0.20186915887850468 0.22997032640949555 0.202803738317757 0.22997032640949555 0.20373831775700935 0.228486646884273 0.205607476635514 0.22774480712166173 0.205607476635514 0.22700296735905046 0.20654205607476636 0.2247774480712166 0.20373831775700935 0.22403560830860533 0.20373831775700935 0.22329376854599406 0.202803738317757 0.2218100890207715 0.2046728971962617 0.22106824925816024 0.20373831775700935 0.22032640949554896 0.2046728971962617 0.2195845697329377 0.2046728971962617 0.22032640949554896 0.205607476635514 0.22032640949554896 0.20654205607476636 0.2195845697329377 0.20747663551401868 0.22032640949554896 0.20841121495327103 0.22032640949554896 0.20934579439252338 0.2195845697329377 0.2102803738317757 0.21884272997032642 0.20934579439252338 0.2195845697329377 0.2102803738317757 0.21884272997032642 0.21121495327102804 0.21810089020771514 0.21121495327102804 0.21735905044510387 0.21214953271028036 0.2158753709198813 0.21214953271028036 0.21439169139465875 0.21401869158878506 0.21364985163204747 0.2130841121495327 0.21364985163204747 0.21401869158878506 0.2129080118694362 0.21495327102803738 0.21216617210682492 0.21495327102803738 0.21142433234421365 0.21401869158878506 0.21216617210682492 0.2130841121495327 0.21216617210682492 0.21214953271028036 0.2129080118694362 0.21121495327102804 0.2129080118694362 0.2102803738317757 0.21364985163204747 0.20934579439252338 0.2129080118694362 0.2102803738317757 0.21216617210682492 0.20934579439252338 0.21142433234421365 0.20934579439252338 0.21216617210682492 0.20934579439252338 0.2129080118694362 0.2102803738317757 0.21216617210682492 0.21121495327102804 0.21142433234421365 0.21121495327102804 0.21068249258160238 0.21214953271028036 0.20919881305637983 0.21214953271028036 0.20845697329376855 0.2130841121495327 0.20771513353115728 0.21214953271028036 0.20771513353115728 0.21121495327102804 0.20845697329376855 0.2102803738317757 0.2099406528189911 0.2102803738317757 0.2099406528189911 0.20934579439252338 0.20919881305637983 0.2102803738317757 0.20845697329376855 0.2102803738317757 0.20771513353115728 0.20934579439252338 0.20845697329376855 0.2102803738317757 0.20771513353115728 0.21121495327102804 0.20771513353115728 0.21214953271028036 0.20919881305637983 0.21401869158878506 0.20845697329376855 0.21495327102803738 0.20919881305637983 0.21495327102803738 0.2099406528189911 0.21588785046728973 0.20845697329376855 0.2177570093457944 0.206973293768546 0.2177570093457944 0.2062314540059347 0.21869158878504674 0.20474777448071216 0.21682242990654205 0.20548961424332343 0.2177570093457944 0.20548961424332343 0.21869158878504674 0.20474777448071216 0.21962616822429906 0.20252225519287834 0.21682242990654205 0.20178041543026706 0.2177570093457944 0.2010385756676558 0.21682242990654205 0.20029673590504452 0.2177570093457944 0.19955489614243324 0.2177570093457944 0.20029673590504452 0.21869158878504674 0.19955489614243324 0.21962616822429906 0.20029673590504452 0.21962616822429906 0.2010385756676558 0.2205607476635514 0.20029673590504452 0.22149532710280373 0.19955489614243324 0.22149532710280373 0.19881305637982197 0.22242990654205608 0.1980712166172107 0.22149532710280373 0.19881305637982197 0.22242990654205608 0.19732937685459942 0.22429906542056074 0.19658753709198812 0.22429906542056074 0.19584569732937684 0.22336448598130842 0.19658753709198812 0.22242990654205608 0.1943620178041543 0.2252336448598131 0.19362017804154302 0.22429906542056074 0.19287833827893175 0.2252336448598131 0.19213649851632048 0.2252336448598131 0.1913946587537092 0.22429906542056074 0.18991097922848665 0.2261682242990654 0.18916913946587538 0.2252336448598131 0.18916913946587538 0.22429906542056074 0.18916913946587538 0.2252336448598131 0.1884272997032641 0.2261682242990654 0.18768545994065283 0.2261682242990654 0.18768545994065283 0.22710280373831776 0.18694362017804153 0.22803738317757008 0.18620178041543026 0.22803738317757008 0.18545994065281898 0.22710280373831776 0.18620178041543026 0.2261682242990654 0.18620178041543026 0.2252336448598131 0.18694362017804153 0.22429906542056074 0.18768545994065283 0.22429906542056074 0.18694362017804153 0.22429906542056074 0.18620178041543026 0.2252336448598131 0.18545994065281898 0.22429906542056074 0.18620178041543026 0.2252336448598131 0.18620178041543026 0.2261682242990654 0.1847181008902077 0.22803738317757008 0.18620178041543026 0.22990654205607478 0.18545994065281898 0.2308411214953271 0.1847181008902077 0.2308411214953271 0.18397626112759644 0.23177570093457944 0.18323442136498516 0.23177570093457944 0.1824925816023739 0.23271028037383176 0.18100890207715134 0.23271028037383176 0.1795252225519288 0.23457943925233646 0.17878338278931752 0.23457943925233646 0.17804154302670624 0.2336448598130841 0.1795252225519288 0.23177570093457944 0.17878338278931752 0.23271028037383176 0.17804154302670624 0.23177570093457944 0.1758160237388724 0.23457943925233646 0.17433234421364985 0.23271028037383176 0.17507418397626112 0.23177570093457944 0.1758160237388724 0.23177570093457944 0.17507418397626112 0.23177570093457944 0.17433234421364985 0.23271028037383176 0.17359050445103857 0.23177570093457944 0.1728486646884273 0.23177570093457944 0.17359050445103857 0.23177570093457944 0.1758160237388724 0.23457943925233646 0.17507418397626112 0.23551401869158878 0.1758160237388724 0.23644859813084113 0.17507418397626112 0.23738317757009345 0.17359050445103857 0.23738317757009345 0.1728486646884273 0.2383177570093458 0.17210682492581603 0.2383177570093458 0.17136498516320475 0.23925233644859814 0.1698813056379822 0.23925233644859814 0.16913946587537093 0.24018691588785046 0.16839762611275966 0.23925233644859814 0.16839762611275966 0.24018691588785046 0.16691394658753708 0.24205607476635513 0.1661721068249258 0.2411214953271028 0.1661721068249258 0.24018691588785046 0.16543026706231453 0.2411214953271028 0.1661721068249258 0.24205607476635513 0.16543026706231453 0.24299065420560748 0.16468842729970326 0.24299065420560748 0.163946587537092 0.24392523364485982 0.1632047477744807 0.24299065420560748 0.1632047477744807 0.24205607476635513 0.163946587537092 0.2411214953271028 0.1632047477744807 0.24018691588785046 0.163946587537092 0.2411214953271028 0.1632047477744807 0.24205607476635513 0.1632047477744807 0.24299065420560748 0.16172106824925817 0.24485981308411214 0.1609792284866469 0.24485981308411214 0.16023738872403562 0.24392523364485982 0.1609792284866469 0.24299065420560748 0.16023738872403562 0.24205607476635513 0.1609792284866469 0.2411214953271028 0.16023738872403562 0.24018691588785046 0.15949554896142434 0.2411214953271028 0.15875370919881307 0.24018691588785046 0.15875370919881307 0.23925233644859814 0.15875370919881307 0.24018691588785046 0.15652818991097922 0.24299065420560748 0.1572700296735905 0.24392523364485982 0.15801186943620177 0.24299065420560748 0.15949554896142434 0.24299065420560748 0.16023738872403562 0.24392523364485982 0.15949554896142434 0.24485981308411214 0.15875370919881307 0.24485981308411214 0.15875370919881307 0.2457943925233645 0.1572700296735905 0.24766355140186916 0.15652818991097922 0.2467289719626168 0.15652818991097922 0.2457943925233645 0.15504451038575667 0.24392523364485982 0.15504451038575667 0.24485981308411214 0.1543026706231454 0.2457943925233645 0.15504451038575667 0.2467289719626168 0.15504451038575667 0.24766355140186916 0.15356083086053413 0.24953271028037383 0.15281899109792285 0.24953271028037383 0.15207715133531158 0.2485981308411215 0.15281899109792285 0.24766355140186916 0.1513353115727003 0.24766355140186916 0.15059347181008903 0.2467289719626168 0.14836795252225518 0.24953271028037383 0.14614243323442136 0.24953271028037383 0.1446587537091988 0.24766355140186916 0.14540059347181009 0.2467289719626168 0.1446587537091988 0.24766355140186916 0.14391691394658754 0.2467289719626168 0.142433234421365 0.2485981308411215 0.142433234421365 0.2504672897196262 0.14317507418397626 0.2514018691588785 0.14317507418397626 0.2523364485981308 0.142433234421365 0.25327102803738316 0.142433234421365 0.2542056074766355 0.142433234421365 0.25327102803738316 0.14317507418397626 0.2523364485981308 0.14317507418397626 0.2514018691588785 0.14391691394658754 0.2504672897196262 0.14540059347181009 0.2523364485981308 0.1446587537091988 0.25327102803738316 0.14540059347181009 0.2542056074766355 0.1446587537091988 0.25514018691588786 0.14391691394658754 0.25514018691588786 0.14317507418397626 0.2560747663551402 0.14169139465875372 0.2560747663551402 0.14020771513353117 0.2542056074766355 0.1394658753709199 0.2542056074766355 0.14020771513353117 0.2542056074766355 0.14094955489614244 0.25514018691588786 0.14094955489614244 0.2560747663551402 0.1394658753709199 0.25794392523364484 0.1387240356083086 0.25794392523364484 0.13798219584569732 0.2588785046728972 0.1357566765578635 0.2560747663551402 0.13501483679525222 0.2560747663551402 0.13427299703264095 0.25514018691588786 0.1327893175074184 0.2570093457943925 0.13204747774480713 0.2560747663551402 0.13130563798219586 0.2570093457943925 0.13056379821958458 0.2570093457943925 0.13130563798219586 0.25794392523364484 0.13130563798219586 0.2588785046728972 0.13056379821958458 0.25981308411214954 0.13130563798219586 0.2607476635514019 0.13130563798219586 0.2616822429906542 0.13056379821958458 0.2626168224299065 0.1298219584569733 0.2616822429906542 0.13056379821958458 0.2626168224299065 0.1298219584569733 0.2635514018691589 0.129080118694362 0.2635514018691589 0.12833827893175073 0.2644859813084112 0.12685459940652818 0.2644859813084112 0.12537091988130564 0.26635514018691586 0.12462908011869436 0.26542056074766357 0.12462908011869436 0.26635514018691586 0.12388724035608309 0.2672897196261682 0.12314540059347182 0.2672897196261682 0.12240356083086053 0.26635514018691586 0.12314540059347182 0.26542056074766357 0.12314540059347182 0.2644859813084112 0.12388724035608309 0.2635514018691589 0.12388724035608309 0.2626168224299065 0.12462908011869436 0.2616822429906542 0.12388724035608309 0.2626168224299065 0.12314540059347182 0.2616822429906542 0.12240356083086053 0.2616822429906542 0.12314540059347182 0.2616822429906542 0.12388724035608309 0.2626168224299065 0.12314540059347182 0.2635514018691589 0.12240356083086053 0.2635514018691589 0.12166172106824925 0.2644859813084112 0.1201780415430267 0.2644859813084112 0.11943620178041543 0.26542056074766357 0.11869436201780416 0.2644859813084112 0.11869436201780416 0.2635514018691589 0.11943620178041543 0.2626168224299065 0.12091988130563798 0.2626168224299065 0.12091988130563798 0.2616822429906542 0.1201780415430267 0.2626168224299065 0.11943620178041543 0.2626168224299065 0.11869436201780416 0.2616822429906542 0.11943620178041543 0.2626168224299065 0.11869436201780416 0.2635514018691589 0.11869436201780416 0.2644859813084112 0.1201780415430267 0.26635514018691586 0.11943620178041543 0.2672897196261682 0.1201780415430267 0.2672897196261682 0.12091988130563798 0.26822429906542056 0.1201780415430267 0.2691588785046729 0.11943620178041543 0.2691588785046729 0.11869436201780416 0.27009345794392525 0.11795252225519288 0.27009345794392525 0.1172106824925816 0.2691588785046729 0.11646884272997032 0.27009345794392525 0.11572700296735905 0.2691588785046729 0.11498516320474778 0.2691588785046729 0.11646884272997032 0.27102803738317754 0.11572700296735905 0.2719626168224299 0.11498516320474778 0.2719626168224299 0.11275964391691394 0.2691588785046729 0.11201780415430267 0.2691588785046729 0.11127596439169139 0.27009345794392525 0.11201780415430267 0.27102803738317754 0.11275964391691394 0.27102803738317754 0.11350148367952523 0.27009345794392525 0.11498516320474778 0.2719626168224299 0.1142433234421365 0.27289719626168224 0.11350148367952523 0.27289719626168224 0.11275964391691394 0.2738317757009346 0.11201780415430267 0.27289719626168224 0.11053412462908012 0.27476635514018694 0.10979228486646884 0.2738317757009346 0.10905044510385757 0.27476635514018694 0.1083086053412463 0.2738317757009346 0.10905044510385757 0.27476635514018694 0.1083086053412463 0.2757009345794392 0.10756676557863501 0.2757009345794392 0.10682492581602374 0.2766355140186916 0.10608308605341246 0.2766355140186916 0.10534124629080119 0.2775700934579439 0.10459940652818991 0.2766355140186916 0.10385756676557864 0.2775700934579439 0.10311572700296735 0.2775700934579439 0.10237388724035608 0.2766355140186916 0.10089020771513353 0.27850467289719627 0.10014836795252226 0.27850467289719627 0.09940652818991098 0.2775700934579439 0.10014836795252226 0.2766355140186916 0.09940652818991098 0.2775700934579439 0.09866468842729971 0.2766355140186916 0.09940652818991098 0.2775700934579439 0.09866468842729971 0.27850467289719627 0.09792284866468842 0.27850467289719627 0.09718100890207715 0.2775700934579439 0.09643916913946587 0.2775700934579439 0.0956973293768546 0.2766355140186916 0.09643916913946587 0.2775700934579439 0.09495548961424333 0.2794392523364486 0.09495548961424333 0.2803738317757009 0.09495548961424333 0.2794392523364486 0.0956973293768546 0.27850467289719627 0.09718100890207715 0.2803738317757009 0.09643916913946587 0.28130841121495326 0.09718100890207715 0.2822429906542056 0.09718100890207715 0.28317757009345795 0.09643916913946587 0.2841121495327103 0.09495548961424333 0.2822429906542056 0.09643916913946587 0.2841121495327103 0.09495548961424333 0.28598130841121494 0.09421364985163205 0.2850467289719626 0.09347181008902077 0.28598130841121494 0.09272997032640949 0.2850467289719626 0.09272997032640949 0.2841121495327103 0.09124629080118694 0.28598130841121494 0.09198813056379822 0.2850467289719626 0.09272997032640949 0.2850467289719626 0.09421364985163205 0.2869158878504673 0.09272997032640949 0.288785046728972 0.09198813056379822 0.288785046728972 0.09124629080118694 0.28785046728971964 0.09050445103857567 0.28785046728971964 0.0897626112759644 0.288785046728972 0.0897626112759644 0.2897196261682243 0.08902077151335312 0.2906542056074766 0.08902077151335312 0.29158878504672897 0.08902077151335312 0.2906542056074766 0.0897626112759644 0.2897196261682243 0.0897626112759644 0.288785046728972 0.09050445103857567 0.28785046728971964 0.09124629080118694 0.28785046728971964 0.09198813056379822 0.288785046728972 0.09124629080118694 0.2897196261682243 0.09124629080118694 0.2906542056074766 0.09050445103857567 0.29158878504672897 0.09050445103857567 0.2925233644859813 0.0897626112759644 0.29345794392523367 0.08902077151335312 0.29345794392523367 0.08902077151335312 0.29439252336448596 0.08827893175074183 0.2953271028037383 0.08753709198813056 0.2953271028037383 0.08679525222551929 0.29439252336448596 0.08753709198813056 0.29345794392523367 0.08679525222551929 0.2925233644859813 0.08753709198813056 0.29345794392523367 0.08382789317507418 0.29813084112149535 0.0830860534124629 0.29813084112149535 0.0830860534124629 0.29906542056074764 0.08160237388724036 0.30093457943925234 0.08011869436201781 0.29906542056074764 0.08086053412462908 0.3 0.08011869436201781 0.30093457943925234 0.07937685459940653 0.30093457943925234 0.07937685459940653 0.3018691588785047 0.07863501483679525 0.30280373831775703 0.0771513353115727 0.30093457943925234 0.0771513353115727 0.3 0.07789317507418397 0.29906542056074764 0.0771513353115727 0.3 0.0771513353115727 0.30093457943925234 0.07863501483679525 0.30280373831775703 0.0771513353115727 0.30467289719626167 0.07789317507418397 0.305607476635514 0.0771513353115727 0.30467289719626167 0.07789317507418397 0.3037383177570093 0.07863501483679525 0.3037383177570093 0.08011869436201781 0.305607476635514 0.07937685459940653 0.30654205607476637 0.08011869436201781 0.3074766355140187 0.07937685459940653 0.308411214953271 0.07863501483679525 0.308411214953271 0.07789317507418397 0.3074766355140187 0.07640949554896143 0.30934579439252335 0.07492581602373888 0.3074766355140187 0.07492581602373888 0.30654205607476637 0.07418397626112759 0.3074766355140187 0.07344213649851632 0.30654205607476637 0.07270029673590504 0.30654205607476637 0.07344213649851632 0.30654205607476637 0.07418397626112759 0.3074766355140187 0.07418397626112759 0.30934579439252335 0.07492581602373888 0.30934579439252335 0.07566765578635015 0.3102803738317757 0.07640949554896143 0.30934579439252335 0.0771513353115727 0.3102803738317757 0.0771513353115727 0.31121495327102805 0.07640949554896143 0.3121495327102804 0.07640949554896143 0.3130841121495327 0.07566765578635015 0.31401869158878504 0.07492581602373888 0.31401869158878504 0.07418397626112759 0.3130841121495327 0.07492581602373888 0.3121495327102804 0.07344213649851632 0.31401869158878504 0.07418397626112759 0.3149532710280374 0.07344213649851632 0.31588785046728973 0.07344213649851632 0.3168224299065421 0.07270029673590504 0.3177570093457944 0.07195845697329377 0.3177570093457944 0.07195845697329377 0.3186915887850467 0.0712166172106825 0.31962616822429907 0.0712166172106825 0.32149532710280376 0.07195845697329377 0.32242990654205606 0.07195845697329377 0.3233644859813084 0.07270029673590504 0.3233644859813084 0.07344213649851632 0.32429906542056075 0.07270029673590504 0.3252336448598131 0.07270029673590504 0.32616822429906545 0.07195845697329377 0.32710280373831774 0.07344213649851632 0.3252336448598131 0.07418397626112759 0.32616822429906545 0.07418397626112759 0.32710280373831774 0.07344213649851632 0.3280373831775701 0.07344213649851632 0.32897196261682243 0.07270029673590504 0.3299065420560748 0.07195845697329377 0.32897196261682243 0.07195845697329377 0.3299065420560748 0.0712166172106825 0.33084112149532713 0.07195845697329377 0.3299065420560748 0.07270029673590504 0.3299065420560748 0.07344213649851632 0.32897196261682243 0.07418397626112759 0.3299065420560748 0.07492581602373888 0.3299065420560748 0.07566765578635015 0.33084112149532713 0.07492581602373888 0.3317757009345794 0.07640949554896143 0.3336448598130841 0.07640949554896143 0.33457943925233646 0.07566765578635015 0.3355140186915888 0.07418397626112759 0.3336448598130841 0.07344213649851632 0.3336448598130841 0.07270029673590504 0.33271028037383177 0.07344213649851632 0.3317757009345794 0.07270029673590504 0.33271028037383177 0.07195845697329377 0.33271028037383177 0.07195845697329377 0.3336448598130841 0.0712166172106825 0.33457943925233646 0.07195845697329377 0.3355140186915888 0.0712166172106825 0.33457943925233646 0.07270029673590504 0.33271028037383177 0.07344213649851632 0.3336448598130841 0.07418397626112759 0.3336448598130841 0.07566765578635015 0.3355140186915888 0.07640949554896143 0.33457943925233646 0.0771513353115727 0.3355140186915888 0.0771513353115727 0.3364485981308411 0.07789317507418397 0.33738317757009345 0.07789317507418397 0.3383177570093458 0.0771513353115727 0.33925233644859815 0.07789317507418397 0.3401869158878505 0.07789317507418397 0.34205607476635513 0.0771513353115727 0.3429906542056075 0.0771513353115727 0.34392523364485983 0.07789317507418397 0.3448598130841122 0.07789317507418397 0.34579439252336447 0.0771513353115727 0.3467289719626168 0.0771513353115727 0.34766355140186916 0.0771513353115727 0.3467289719626168 0.07789317507418397 0.34579439252336447 0.07863501483679525 0.34579439252336447 0.07937685459940653 0.3467289719626168 0.07863501483679525 0.34766355140186916 0.07937685459940653 0.3485981308411215 0.07863501483679525 0.34953271028037386 0.07863501483679525 0.35046728971962615 0.07863501483679525 0.34953271028037386 0.07937685459940653 0.3485981308411215 0.08011869436201781 0.34953271028037386 0.08160237388724036 0.34953271028037386 0.0830860534124629 0.3514018691588785 0.0830860534124629 0.3532710280373832 0.08382789317507418 0.3542056074766355 0.08382789317507418 0.35514018691588783 0.08456973293768547 0.3560747663551402 0.08382789317507418 0.35700934579439253 0.08382789317507418 0.3579439252336449 0.0830860534124629 0.35887850467289717 0.08456973293768547 0.35700934579439253 0.08531157270029674 0.3579439252336449 0.08531157270029674 0.35887850467289717 0.08382789317507418 0.36074766355140186 0.08456973293768547 0.3598130841121495 0.08531157270029674 0.3598130841121495 0.08605341246290801 0.36074766355140186 0.08531157270029674 0.3616822429906542 0.08605341246290801 0.36261682242990656 0.08605341246290801 0.36355140186915885 0.08679525222551929 0.36355140186915885 0.08753709198813056 0.3644859813084112 0.08753709198813056 0.36542056074766355 0.08827893175074183 0.3663551401869159 0.08827893175074183 0.36728971962616824 0.08902077151335312 0.36822429906542054 0.08902077151335312 0.3691588785046729 0.08827893175074183 0.37009345794392523 0.08753709198813056 0.3691588785046729 0.08679525222551929 0.37009345794392523 0.08605341246290801 0.37009345794392523 0.08605341246290801 0.3719626168224299 0.08531157270029674 0.3728971962616822 0.08456973293768547 0.3728971962616822 0.08531157270029674 0.3728971962616822 0.08605341246290801 0.3719626168224299 0.08679525222551929 0.3728971962616822 0.08679525222551929 0.3719626168224299 0.08827893175074183 0.37009345794392523 0.08902077151335312 0.3710280373831776 0.0897626112759644 0.3710280373831776 0.09050445103857567 0.3719626168224299 0.0897626112759644 0.3728971962616822 0.08827893175074183 0.3728971962616822 0.08902077151335312 0.3728971962616822 0.09050445103857567 0.3747663551401869 0.08902077151335312 0.3766355140186916 0.0897626112759644 0.37570093457943926 0.09124629080118694 0.37570093457943926 0.09198813056379822 0.3766355140186916 0.09124629080118694 0.3775700934579439 0.09198813056379822 0.37850467289719625 0.09198813056379822 0.3794392523364486 0.09272997032640949 0.38037383177570094 0.09272997032640949 0.3813084112149533 0.09124629080118694 0.38317757009345793 0.0897626112759644 0.38317757009345793 0.08902077151335312 0.3822429906542056 0.0897626112759644 0.38317757009345793 0.08902077151335312 0.3841121495327103 0.0897626112759644 0.38317757009345793 0.09124629080118694 0.38317757009345793 0.09198813056379822 0.3841121495327103 0.09272997032640949 0.3841121495327103 0.09347181008902077 0.3850467289719626 0.09272997032640949 0.385981308411215 0.09198813056379822 0.385981308411215 0.09124629080118694 0.38691588785046727 0.09050445103857567 0.385981308411215 0.09050445103857567 0.3850467289719626 0.09050445103857567 0.385981308411215 0.09124629080118694 0.38691588785046727 0.09050445103857567 0.3878504672897196 0.0897626112759644 0.3878504672897196 0.08902077151335312 0.38691588785046727 0.0897626112759644 0.3878504672897196 0.09050445103857567 0.3878504672897196 0.09124629080118694 0.38691588785046727 0.09198813056379822 0.3878504672897196 0.09124629080118694 0.38691588785046727 0.09198813056379822 0.385981308411215 0.09272997032640949 0.385981308411215 0.09347181008902077 0.3850467289719626 0.09421364985163205 0.385981308411215 0.09495548961424333 0.385981308411215 0.0956973293768546 0.38691588785046727 0.0956973293768546 0.3878504672897196 0.09495548961424333 0.38878504672897196 0.09495548961424333 0.3897196261682243 0.0956973293768546 0.39065420560747666 0.09495548961424333 0.39158878504672895 0.09495548961424333 0.3925233644859813 0.0956973293768546 0.39345794392523364 0.09495548961424333 0.394392523364486 0.0956973293768546 0.39532710280373834 0.0956973293768546 0.39626168224299063 0.09643916913946587 0.397196261682243 0.0956973293768546 0.3981308411214953 0.09495548961424333 0.3981308411214953 0.0956973293768546 0.3990654205607477 0.09495548961424333 0.4 0.0956973293768546 0.3990654205607477 0.0956973293768546 0.3981308411214953 0.09643916913946587 0.397196261682243 0.0956973293768546 0.39626168224299063 0.0956973293768546 0.39532710280373834 0.09495548961424333 0.394392523364486 0.0956973293768546 0.39345794392523364 0.09495548961424333 0.3925233644859813 0.09495548961424333 0.39158878504672895 0.0956973293768546 0.39065420560747666 0.09718100890207715 0.3925233644859813 0.09718100890207715 0.39345794392523364 0.09792284866468842 0.394392523364486 0.09792284866468842 0.39626168224299063 0.09866468842729971 0.397196261682243 0.09718100890207715 0.3990654205607477 0.09792284866468842 0.3981308411214953 0.09866468842729971 0.3990654205607477 0.09866468842729971 0.40186915887850466 0.09792284866468842 0.402803738317757 0.09643916913946587 0.4009345794392523 0.0956973293768546 0.40186915887850466 0.0956973293768546 0.402803738317757 0.0956973293768546 0.40186915887850466 0.09643916913946587 0.4009345794392523 0.09792284866468842 0.402803738317757 0.09866468842729971 0.40186915887850466 0.09866468842729971 0.4009345794392523 0.09940652818991098 0.4 0.10014836795252226 0.4009345794392523 0.10014836795252226 0.40186915887850466 0.10089020771513353 0.402803738317757 0.10089020771513353 0.40373831775700936 0.1016320474777448 0.4046728971962617 0.10089020771513353 0.405607476635514 0.10237388724035608 0.4074766355140187 0.10237388724035608 0.40841121495327104 0.1016320474777448 0.4093457943925234 0.10089020771513353 0.40841121495327104 0.1016320474777448 0.4093457943925234 0.10089020771513353 0.4102803738317757 0.1016320474777448 0.4093457943925234 0.10237388724035608 0.4102803738317757 0.10237388724035608 0.411214953271028 0.10311572700296735 0.4121495327102804 0.1016320474777448 0.41401869158878507 0.1016320474777448 0.41495327102803736 0.10089020771513353 0.4158878504672897 0.1016320474777448 0.41495327102803736 0.10237388724035608 0.41495327102803736 0.1016320474777448 0.41401869158878507 0.10311572700296735 0.4121495327102804 0.10385756676557864 0.4130841121495327 0.10385756676557864 0.41401869158878507 0.10459940652818991 0.41495327102803736 0.10459940652818991 0.4158878504672897 0.10534124629080119 0.41682242990654206 0.10459940652818991 0.4177570093457944 0.10534124629080119 0.4177570093457944 0.10608308605341246 0.41869158878504675 0.10534124629080119 0.41962616822429905 0.10385756676557864 0.41962616822429905 0.10311572700296735 0.4205607476635514 0.10089020771513353 0.4177570093457944 0.10385756676557864 0.42149532710280374 0.10385756676557864 0.42336448598130844 0.10311572700296735 0.42429906542056073 0.10237388724035608 0.42336448598130844 0.10237388724035608 0.4224299065420561 0.10089020771513353 0.4205607476635514 0.1016320474777448 0.42149532710280374 0.1016320474777448 0.4224299065420561 0.10089020771513353 0.42336448598130844 0.10237388724035608 0.4252336448598131 0.10385756676557864 0.42336448598130844 0.10385756676557864 0.42149532710280374 0.10311572700296735 0.4205607476635514 0.10385756676557864 0.41962616822429905 0.10534124629080119 0.41962616822429905 0.10608308605341246 0.4205607476635514 0.10534124629080119 0.42149532710280374 0.10756676557863501 0.42429906542056073 0.10756676557863501 0.4252336448598131 0.1083086053412463 0.4261682242990654 0.10682492581602374 0.4280373831775701 0.10756676557863501 0.4289719626168224 0.1083086053412463 0.4280373831775701 0.10905044510385757 0.4289719626168224 0.10905044510385757 0.4308411214953271 0.1083086053412463 0.43177570093457945 0.10682492581602374 0.43177570093457945 0.1083086053412463 0.4336448598130841 0.10756676557863501 0.43457943925233644 0.10756676557863501 0.4355140186915888 0.10682492581602374 0.43644859813084114 0.10682492581602374 0.4373831775700935 0.10756676557863501 0.4383177570093458 0.10682492581602374 0.4392523364485981 0.10756676557863501 0.4383177570093458 0.1083086053412463 0.4383177570093458 0.10756676557863501 0.4383177570093458 0.10682492581602374 0.4373831775700935 0.10682492581602374 0.43644859813084114 0.10756676557863501 0.4355140186915888 0.1083086053412463 0.43644859813084114 0.10905044510385757 0.43644859813084114 0.10979228486646884 0.4373831775700935 0.11053412462908012 0.4373831775700935 0.11127596439169139 0.4383177570093458 0.10905044510385757 0.4411214953271028 0.1083086053412463 0.44018691588785047 0.10905044510385757 0.4411214953271028 0.1083086053412463 0.44205607476635517 0.10756676557863501 0.44205607476635517 0.10682492581602374 0.4411214953271028 0.10756676557863501 0.44205607476635517 0.10756676557863501 0.44299065420560746 0.10979228486646884 0.44018691588785047 0.11053412462908012 0.44018691588785047 0.11127596439169139 0.4411214953271028 0.11127596439169139 0.44205607476635517 0.11201780415430267 0.44205607476635517 0.11275964391691394 0.44299065420560746 0.11201780415430267 0.4439252336448598 0.11053412462908012 0.4439252336448598 0.10979228486646884 0.44299065420560746 0.10905044510385757 0.4439252336448598 0.11127596439169139 0.44672897196261685 0.11127596439169139 0.44766355140186914 0.11127596439169139 0.44672897196261685 0.11201780415430267 0.4457943925233645 0.11053412462908012 0.4457943925233645 0.10979228486646884 0.44485981308411215 0.11053412462908012 0.4439252336448598 0.11275964391691394 0.4439252336448598 0.11350148367952523 0.44485981308411215 0.11350148367952523 0.4457943925233645 0.1142433234421365 0.44672897196261685 0.1142433234421365 0.44766355140186914 0.11350148367952523 0.4485981308411215 0.1142433234421365 0.4485981308411215 0.11498516320474778 0.44953271028037384 0.11350148367952523 0.4514018691588785 0.11275964391691394 0.4504672897196262 0.11350148367952523 0.4514018691588785 0.11275964391691394 0.4523364485981308 0.11350148367952523 0.4532710280373832 0.11275964391691394 0.4542056074766355 0.11350148367952523 0.4532710280373832 0.1142433234421365 0.4532710280373832 0.11498516320474778 0.4542056074766355 0.11572700296735905 0.4542056074766355 0.11646884272997032 0.45514018691588787 0.11572700296735905 0.45607476635514016 0.11646884272997032 0.4570093457943925 0.11498516320474778 0.4588785046728972 0.11572700296735905 0.45794392523364486 0.11646884272997032 0.4588785046728972 0.11646884272997032 0.4616822429906542 0.11572700296735905 0.46261682242990654 0.1142433234421365 0.46074766355140184 0.11350148367952523 0.4616822429906542 0.11350148367952523 0.46261682242990654 0.11350148367952523 0.4616822429906542 0.1142433234421365 0.46074766355140184 0.11572700296735905 0.46261682242990654 0.11646884272997032 0.4616822429906542 0.11646884272997032 0.46074766355140184 0.1172106824925816 0.45981308411214955 0.11795252225519288 0.46074766355140184 0.11795252225519288 0.4616822429906542 0.11869436201780416 0.46261682242990654 0.11869436201780416 0.4635514018691589 0.11943620178041543 0.46448598130841123 0.11869436201780416 0.4654205607476635 0.11943620178041543 0.4663551401869159 0.11943620178041543 0.4672897196261682 0.11869436201780416 0.46822429906542057 0.11943620178041543 0.4691588785046729 0.11943620178041543 0.4700934579439252 0.11869436201780416 0.47102803738317756 0.11943620178041543 0.4700934579439252 0.11943620178041543 0.4691588785046729 0.1201780415430267 0.46822429906542057 0.12091988130563798 0.4691588785046729 0.12091988130563798 0.47102803738317756 0.11943620178041543 0.47289719626168225 0.1201780415430267 0.4719626168224299 0.12091988130563798 0.4719626168224299 0.12166172106824925 0.47289719626168225 0.12091988130563798 0.4738317757009346 0.12166172106824925 0.4747663551401869 0.12166172106824925 0.47570093457943924 0.12240356083086053 0.47570093457943924 0.12314540059347182 0.4766355140186916 0.12314540059347182 0.4794392523364486 0.12388724035608309 0.4803738317757009 0.12388724035608309 0.48130841121495327 0.12462908011869436 0.4822429906542056 0.12388724035608309 0.48317757009345796 0.12314540059347182 0.48317757009345796 0.12240356083086053 0.4822429906542056 0.12240356083086053 0.48130841121495327 0.12166172106824925 0.48130841121495327 0.12091988130563798 0.4803738317757009 0.1201780415430267 0.4803738317757009 0.11943620178041543 0.4794392523364486 0.1201780415430267 0.4785046728971963 0.1201780415430267 0.4766355140186916 0.11943620178041543 0.47570093457943924 0.11943620178041543 0.4747663551401869 0.11943620178041543 0.47570093457943924 0.1201780415430267 0.4766355140186916 0.1201780415430267 0.4785046728971963 0.11869436201780416 0.4803738317757009 0.11943620178041543 0.4794392523364486 0.1201780415430267 0.4803738317757009 0.12091988130563798 0.4803738317757009 0.12166172106824925 0.48130841121495327 0.1201780415430267 0.48317757009345796 0.11943620178041543 0.4822429906542056 0.11869436201780416 0.4822429906542056 0.11943620178041543 0.4822429906542056 0.1201780415430267 0.48317757009345796 0.1201780415430267 0.48411214953271026 0.11943620178041543 0.4850467289719626 0.11869436201780416 0.48411214953271026 0.11943620178041543 0.4850467289719626 0.1201780415430267 0.48411214953271026 0.12091988130563798 0.4850467289719626 0.12166172106824925 0.48411214953271026 0.12091988130563798 0.4850467289719626 0.1201780415430267 0.48411214953271026 0.1201780415430267 0.48317757009345796 0.12166172106824925 0.48130841121495327 0.12314540059347182 0.48317757009345796 0.12462908011869436 0.48317757009345796 0.12537091988130564 0.48411214953271026 0.12537091988130564 0.4850467289719626 0.12462908011869436 0.48598130841121495 0.12462908011869436 0.4869158878504673 0.1261127596439169 0.48878504672897194 0.12537091988130564 0.4897196261682243 0.12462908011869436 0.4897196261682243 0.12537091988130564 0.49065420560747663 0.12462908011869436 0.491588785046729 0.12462908011869436 0.49252336448598133 0.12462908011869436 0.491588785046729 0.12537091988130564 0.49065420560747663 0.1261127596439169 0.491588785046729 0.1261127596439169 0.4934579439252336 0.12462908011869436 0.4953271028037383 0.12537091988130564 0.49439252336448597 0.1261127596439169 0.4953271028037383 0.12685459940652818 0.4953271028037383 0.12759643916913946 0.49626168224299066 0.1261127596439169 0.4981308411214953 0.12537091988130564 0.497196261682243 0.12462908011869436 0.497196261682243 0.12537091988130564 0.497196261682243 0.1261127596439169 0.4981308411214953 0.1261127596439169 0.49906542056074765 0.12537091988130564 0.5 0.12462908011869436 0.49906542056074765 0.12537091988130564 0.5 0.1261127596439169 0.49906542056074765 0.12685459940652818 0.5 0.12759643916913946 0.49906542056074765 0.12685459940652818 0.5 0.1261127596439169 0.49906542056074765 0.1261127596439169 0.4981308411214953 0.12759643916913946 0.49626168224299066 0.129080118694362 0.4981308411214953 0.13130563798219586 0.4981308411214953 0.13204747774480713 0.49906542056074765 0.13130563798219586 0.5 0.13056379821958458 0.5 0.13130563798219586 0.5009345794392523 0.13056379821958458 0.5018691588785047 0.13130563798219586 0.5018691588785047 0.13204747774480713 0.502803738317757 0.13130563798219586 0.5037383177570094 0.13056379821958458 0.5037383177570094 0.13130563798219586 0.5046728971962616 0.13056379821958458 0.505607476635514 0.13056379821958458 0.5065420560747663 0.13130563798219586 0.5074766355140187 0.13130563798219586 0.5065420560747663 0.13056379821958458 0.505607476635514 0.13130563798219586 0.5046728971962616 0.13204747774480713 0.5046728971962616 0.1327893175074184 0.5037383177570094 0.13353115727002968 0.5037383177570094 0.13427299703264095 0.5046728971962616 0.1327893175074184 0.5065420560747663 0.13353115727002968 0.5074766355140187 0.13427299703264095 0.5074766355140187 0.13501483679525222 0.5065420560747663 0.13649851632047477 0.508411214953271 0.13649851632047477 0.5112149532710281 0.13724035608308605 0.5121495327102804 0.13724035608308605 0.5130841121495328 0.13649851632047477 0.514018691588785 0.13724035608308605 0.5149532710280373 0.13649851632047477 0.5158878504672897 0.13724035608308605 0.516822429906542 0.13649851632047477 0.5177570093457944 0.13724035608308605 0.5186915887850467 0.13649851632047477 0.5196261682242991 0.13724035608308605 0.5205607476635514 0.13798219584569732 0.5205607476635514 0.13724035608308605 0.5205607476635514 0.13649851632047477 0.5196261682242991 0.13724035608308605 0.5186915887850467 0.13649851632047477 0.5177570093457944 0.13724035608308605 0.516822429906542 0.13649851632047477 0.5158878504672897 0.13724035608308605 0.5149532710280373 0.13798219584569732 0.5149532710280373 0.1387240356083086 0.5158878504672897 0.1394658753709199 0.5149532710280373 0.14020771513353117 0.5158878504672897 0.14020771513353117 0.516822429906542 0.14094955489614244 0.5177570093457944 0.1394658753709199 0.5196261682242991 0.14020771513353117 0.5205607476635514 0.1387240356083086 0.5224299065420561 0.13798219584569732 0.5224299065420561 0.1387240356083086 0.5224299065420561 0.1394658753709199 0.5214953271028038 0.14020771513353117 0.5224299065420561 0.14094955489614244 0.5214953271028038 0.142433234421365 0.5233644859813084 0.142433234421365 0.5242990654205607 0.14391691394658754 0.5261682242990654 0.14317507418397626 0.5271028037383177 0.142433234421365 0.5271028037383177 0.14317507418397626 0.5280373831775701 0.142433234421365 0.5289719626168224 0.142433234421365 0.5299065420560748 0.142433234421365 0.5289719626168224 0.14317507418397626 0.5280373831775701 0.14391691394658754 0.5289719626168224 0.14391691394658754 0.5308411214953271 0.142433234421365 0.5327102803738317 0.14317507418397626 0.5317757009345795 0.14391691394658754 0.5327102803738317 0.1446587537091988 0.5327102803738317 0.14540059347181009 0.5336448598130841 0.14391691394658754 0.5355140186915888 0.14317507418397626 0.5345794392523364 0.142433234421365 0.5345794392523364 0.14317507418397626 0.5345794392523364 0.14391691394658754 0.5355140186915888 0.14391691394658754 0.5364485981308411 0.14317507418397626 0.5373831775700935 0.142433234421365 0.5364485981308411 0.14317507418397626 0.5373831775700935 0.14391691394658754 0.5364485981308411 0.1446587537091988 0.5373831775700935 0.14540059347181009 0.5364485981308411 0.1446587537091988 0.5373831775700935 0.14391691394658754 0.5364485981308411 0.14391691394658754 0.5355140186915888 0.14540059347181009 0.5336448598130841 0.14688427299703263 0.5355140186915888 0.14910979228486648 0.5355140186915888 0.14985163204747776 0.5364485981308411 0.14910979228486648 0.5373831775700935 0.14836795252225518 0.5373831775700935 0.14910979228486648 0.5383177570093458 0.14836795252225518 0.5392523364485982 0.14910979228486648 0.5392523364485982 0.14985163204747776 0.5401869158878505 0.14910979228486648 0.5411214953271029 0.14836795252225518 0.5411214953271029 0.14910979228486648 0.5420560747663551 0.14836795252225518 0.5429906542056074 0.14836795252225518 0.5439252336448598 0.14910979228486648 0.5448598130841121 0.14910979228486648 0.5439252336448598 0.14836795252225518 0.5429906542056074 0.14910979228486648 0.5420560747663551 0.14985163204747776 0.5420560747663551 0.15059347181008903 0.5411214953271029 0.1513353115727003 0.5411214953271029 0.15207715133531158 0.5420560747663551 0.15059347181008903 0.5439252336448598 0.1513353115727003 0.5448598130841121 0.15207715133531158 0.5448598130841121 0.15281899109792285 0.5439252336448598 0.1543026706231454 0.5457943925233645 0.1543026706231454 0.5485981308411215 0.15504451038575667 0.5495327102803739 0.15504451038575667 0.5504672897196262 0.1543026706231454 0.5514018691588785 0.15504451038575667 0.5523364485981308 0.1543026706231454 0.5532710280373832 0.15504451038575667 0.5542056074766355 0.1543026706231454 0.5551401869158878 0.15504451038575667 0.5560747663551402 0.1543026706231454 0.5570093457943925 0.15504451038575667 0.5579439252336449 0.15578635014836795 0.5579439252336449 0.15504451038575667 0.5579439252336449 0.1543026706231454 0.5570093457943925 0.15504451038575667 0.5560747663551402 0.1543026706231454 0.5551401869158878 0.15504451038575667 0.5542056074766355 0.1543026706231454 0.5532710280373832 0.15504451038575667 0.5523364485981308 0.15578635014836795 0.5523364485981308 0.15652818991097922 0.5532710280373832 0.1572700296735905 0.5523364485981308 0.15801186943620177 0.5532710280373832 0.15801186943620177 0.5542056074766355 0.15875370919881307 0.5551401869158878 0.1572700296735905 0.5570093457943925 0.15801186943620177 0.5579439252336449 0.15652818991097922 0.5598130841121496 0.15578635014836795 0.5598130841121496 0.15652818991097922 0.5598130841121496 0.1572700296735905 0.5588785046728972 0.15801186943620177 0.5598130841121496 0.15875370919881307 0.5588785046728972 0.15949554896142434 0.5598130841121496 0.15875370919881307 0.5588785046728972 0.15949554896142434 0.5579439252336449 0.16023738872403562 0.5579439252336449 0.16172106824925817 0.5598130841121496 0.16023738872403562 0.5616822429906542 0.16023738872403562 0.5635514018691589 0.1609792284866469 0.5626168224299065 0.16023738872403562 0.5616822429906542 0.16172106824925817 0.5598130841121496 0.16246290801186944 0.5607476635514018 0.16246290801186944 0.5626168224299065 0.1632047477744807 0.5635514018691589 0.1632047477744807 0.5654205607476636 0.16246290801186944 0.5663551401869159 0.1632047477744807 0.5654205607476636 0.163946587537092 0.5654205607476636 0.16468842729970326 0.5663551401869159 0.16543026706231453 0.5654205607476636 0.16691394658753708 0.5672897196261683 0.16691394658753708 0.5682242990654206 0.1661721068249258 0.569158878504673 0.16691394658753708 0.5682242990654206 0.16765578635014836 0.5682242990654206 0.16839762611275966 0.569158878504673 0.16765578635014836 0.5700934579439252 0.16765578635014836 0.5710280373831775 0.16691394658753708 0.5719626168224299 0.1661721068249258 0.5710280373831775 0.16691394658753708 0.5719626168224299 0.1661721068249258 0.5728971962616822 0.16691394658753708 0.5728971962616822 0.16765578635014836 0.5738317757009346 0.16765578635014836 0.5747663551401869 0.16839762611275966 0.5738317757009346 0.16913946587537093 0.5738317757009346 0.1698813056379822 0.5747663551401869 0.17062314540059348 0.5738317757009346 0.17136498516320475 0.5747663551401869 0.17210682492581603 0.5747663551401869 0.1728486646884273 0.5757009345794393 0.17210682492581603 0.5766355140186916 0.1728486646884273 0.577570093457944 0.17359050445103857 0.5766355140186916 0.17507418397626112 0.5785046728971963 0.17433234421364985 0.5794392523364486 0.17507418397626112 0.5803738317757009 0.17433234421364985 0.5813084112149532 0.17507418397626112 0.5822429906542056 0.17655786350148367 0.5803738317757009 0.17804154302670624 0.5822429906542056 0.17804154302670624 0.5841121495327103 0.17878338278931752 0.5841121495327103 0.1847181008902077 0.591588785046729 0.1847181008902077 0.5925233644859813 0.18545994065281898 0.5934579439252337 0.1847181008902077 0.594392523364486 0.18397626112759644 0.594392523364486 0.18397626112759644 0.5953271028037384 0.18545994065281898 0.5934579439252337 0.18620178041543026 0.594392523364486 0.18620178041543026 0.5981308411214953 0.18545994065281898 0.5990654205607476 0.1847181008902077 0.5990654205607476 0.18397626112759644 0.5981308411214953 0.1847181008902077 0.597196261682243 0.18397626112759644 0.597196261682243 0.18397626112759644 0.5981308411214953 0.1847181008902077 0.5990654205607476 0.1847181008902077 0.6 0.18620178041543026 0.5981308411214953 0.18620178041543026 0.5962616822429907 0.18694362017804153 0.5953271028037384 0.18768545994065283 0.5962616822429907 0.18768545994065283 0.597196261682243 0.1884272997032641 0.5981308411214953 0.1884272997032641 0.5990654205607476 0.18991097922848665 0.5990654205607476 0.19213649851632048 0.6018691588785047 0.1913946587537092 0.602803738317757 0.19065281899109793 0.602803738317757 0.18916913946587538 0.6009345794392523 0.18768545994065283 0.6009345794392523 0.18694362017804153 0.6 0.18620178041543026 0.6009345794392523 0.1884272997032641 0.6037383177570094 0.1884272997032641 0.6046728971962617 0.1884272997032641 0.6037383177570094 0.18991097922848665 0.6018691588785047 0.19065281899109793 0.602803738317757 0.1913946587537092 0.602803738317757 0.19362017804154302 0.6056074766355141 0.1943620178041543 0.6056074766355141 0.19510385756676557 0.6065420560747663 0.1943620178041543 0.6074766355140186 0.19362017804154302 0.6074766355140186 0.19362017804154302 0.608411214953271 0.19510385756676557 0.6065420560747663 0.19584569732937684 0.6074766355140186 0.19584569732937684 0.608411214953271 0.19510385756676557 0.6093457943925233 0.19658753709198812 0.611214953271028 0.19732937685459942 0.6102803738317757 0.1980712166172107 0.6102803738317757 0.19881305637982197 0.611214953271028 0.1980712166172107 0.6121495327102804 0.19881305637982197 0.6130841121495327 0.19732937685459942 0.6149532710280374 0.19658753709198812 0.6149532710280374 0.19584569732937684 0.6140186915887851 0.19658753709198812 0.6130841121495327 0.19584569732937684 0.6140186915887851 0.19732937685459942 0.6158878504672897 0.19584569732937684 0.6177570093457944 0.19584569732937684 0.6186915887850467 0.19658753709198812 0.6196261682242991 0.19584569732937684 0.6186915887850467 0.19584569732937684 0.6177570093457944 0.19732937685459942 0.6158878504672897 0.1980712166172107 0.616822429906542 0.1980712166172107 0.6177570093457944 0.19881305637982197 0.6177570093457944 0.19955489614243324 0.6186915887850467 0.19881305637982197 0.6196261682242991 0.20029673590504452 0.6177570093457944 0.20178041543026706 0.6196261682242991 0.20252225519287834 0.6186915887850467 0.2032640949554896 0.6186915887850467 0.20400593471810088 0.6177570093457944 0.20474777448071216 0.6177570093457944 0.20548961424332343 0.6186915887850467 0.20474777448071216 0.6196261682242991 0.20548961424332343 0.6186915887850467 0.2062314540059347 0.6196261682242991 0.20771513353115728 0.6196261682242991 0.20845697329376855 0.6205607476635514 0.20919881305637983 0.6205607476635514 0.2099406528189911 0.6214953271028038 0.20919881305637983 0.6224299065420561 0.2099406528189911 0.6214953271028038 0.21068249258160238 0.6224299065420561 0.21142433234421365 0.6214953271028038 0.2129080118694362 0.6233644859813084 0.21364985163204747 0.6233644859813084 0.21439169139465875 0.6242990654205608 0.21513353115727002 0.6242990654205608 0.2158753709198813 0.6233644859813084 0.2166172106824926 0.6242990654205608 0.2166172106824926 0.625233644859813 0.2158753709198813 0.6261682242990654 0.21439169139465875 0.6261682242990654 0.21513353115727002 0.6271028037383177 0.2166172106824926 0.625233644859813 0.21735905044510387 0.6261682242990654 0.21735905044510387 0.6271028037383177 0.21735905044510387 0.6261682242990654 0.21810089020771514 0.625233644859813 0.21884272997032642 0.6261682242990654 0.2195845697329377 0.6261682242990654 0.22032640949554896 0.6271028037383177 0.2195845697329377 0.6280373831775701 0.22032640949554896 0.6289719626168224 0.22032640949554896 0.6299065420560748 0.2195845697329377 0.6308411214953271 0.2195845697329377 0.6327102803738318 0.22106824925816024 0.6345794392523364 0.2218100890207715 0.6336448598130842 0.22255192878338279 0.6345794392523364 0.2218100890207715 0.6336448598130842 0.22329376854599406 0.6317757009345795 0.22551928783382788 0.6317757009345795 0.22626112759643918 0.6327102803738318 0.2247774480712166 0.6345794392523364 0.22403560830860533 0.6336448598130842 0.2247774480712166 0.6345794392523364 0.22626112759643918 0.6327102803738318 0.22774480712166173 0.6345794392523364 0.228486646884273 0.6345794392523364 0.22922848664688428 0.6336448598130842 0.22997032640949555 0.6345794392523364 0.23071216617210683 0.6345794392523364 0.2314540059347181 0.6336448598130842 0.23219584569732937 0.6336448598130842 0.23293768545994065 0.6345794392523364 0.23219584569732937 0.6336448598130842 0.23293768545994065 0.6327102803738318 0.23367952522255192 0.6327102803738318 0.23516320474777447 0.6345794392523364 0.23590504451038577 0.6336448598130842 0.23664688427299704 0.6345794392523364 0.23738872403560832 0.6345794392523364 0.2381305637982196 0.6355140186915887 0.23887240356083086 0.6355140186915887 0.23961424332344214 0.6364485981308411 0.23887240356083086 0.6373831775700934 0.23961424332344214 0.6364485981308411 0.2403560830860534 0.6373831775700934 0.2410979228486647 0.6364485981308411 0.24258160237388723 0.6383177570093458 0.2433234421364985 0.6383177570093458 0.24406528189910978 0.6392523364485981 0.24480712166172106 0.6392523364485981 0.24554896142433236 0.6383177570093458 0.24629080118694363 0.6392523364485981 0.24629080118694363 0.6401869158878505 0.24554896142433236 0.6411214953271028 0.24406528189910978 0.6411214953271028 0.24480712166172106 0.6420560747663552 0.24629080118694363 0.6401869158878505 0.2470326409495549 0.6411214953271028 0.2470326409495549 0.6420560747663552 0.2470326409495549 0.6411214953271028 0.24777448071216618 0.6401869158878505 0.24851632047477745 0.6411214953271028 0.24925816023738873 0.6411214953271028 0.25 0.6420560747663552 0.2507418397626113 0.6411214953271028 0.25148367952522255 0.6420560747663552 0.2551928783382789 0.6420560747663552 0.2559347181008902 0.6429906542056075 0.2551928783382789 0.6439252336448598 0.2559347181008902 0.6448598130841121 0.2551928783382789 0.6457943925233645 0.25667655786350146 0.6476635514018692 0.2559347181008902 0.6485981308411215 0.25667655786350146 0.6476635514018692 0.25741839762611274 0.6485981308411215 0.25741839762611274 0.6495327102803738 0.25741839762611274 0.6485981308411215 0.25667655786350146 0.6476635514018692 0.25741839762611274 0.6467289719626168 0.25741839762611274 0.6439252336448598 0.25741839762611274 0.6457943925233645 0.25667655786350146 0.6467289719626168 0.2559347181008902 0.6467289719626168 0.2551928783382789 0.6457943925233645 0.2559347181008902 0.6448598130841121 0.2551928783382789 0.6439252336448598 0.25667655786350146 0.6420560747663552 0.258160237388724 0.6420560747663552 0.2603857566765579 0.6448598130841121 0.2596439169139466 0.6457943925233645 0.2589020771513353 0.6457943925233645 0.2589020771513353 0.6476635514018692 0.2596439169139466 0.6485981308411215 0.2589020771513353 0.6495327102803738 0.26186943620178044 0.6457943925233645 0.2626112759643917 0.6467289719626168 0.2626112759643917 0.6476635514018692 0.263353115727003 0.6476635514018692 0.26409495548961426 0.6485981308411215 0.26483679525222553 0.6485981308411215 0.2655786350148368 0.6495327102803738 0.26483679525222553 0.6485981308411215 0.2663204747774481 0.6467289719626168 0.26706231454005935 0.6476635514018692 0.27225519287833827 0.6476635514018692 0.2737388724035608 0.6495327102803738 0.2744807121661721 0.6485981308411215 0.27299703264094954 0.6467289719626168 0.27225519287833827 0.6476635514018692 0.26706231454005935 0.6476635514018692 0.2663204747774481 0.6467289719626168 0.2663204747774481 0.6457943925233645 0.2655786350148368 0.6467289719626168 0.26483679525222553 0.6457943925233645 0.26409495548961426 0.6457943925233645 0.26483679525222553 0.6457943925233645 0.2655786350148368 0.6467289719626168 0.2655786350148368 0.6476635514018692 0.26483679525222553 0.6485981308411215 0.26409495548961426 0.6485981308411215 0.26186943620178044 0.6457943925233645 0.263353115727003 0.6439252336448598 0.26409495548961426 0.6439252336448598 0.26483679525222553 0.6429906542056075 0.2655786350148368 0.6439252336448598 0.27225519287833827 0.6439252336448598 0.27299703264094954 0.6448598130841121 0.2737388724035608 0.6448598130841121 0.27522255192878337 0.6467289719626168 0.2744807121661721 0.6457943925233645 0.27522255192878337 0.6448598130841121 0.2774480712166172 0.6448598130841121 0.27818991097922846 0.6457943925233645 0.27818991097922846 0.6467289719626168 0.2774480712166172 0.6476635514018692 0.2767062314540059 0.6467289719626168 0.2774480712166172 0.6476635514018692 0.27818991097922846 0.6467289719626168 0.2789317507418398 0.6476635514018692 0.2789317507418398 0.6467289719626168 0.27818991097922846 0.6457943925233645 0.2789317507418398 0.6448598130841121 0.27967359050445106 0.6448598130841121 0.28041543026706234 0.6457943925233645 0.28041543026706234 0.6467289719626168 0.2811572700296736 0.6457943925233645 0.2818991097922849 0.6467289719626168 0.2818991097922849 0.6476635514018692 0.28338278931750743 0.6495327102803738 0.28264094955489616 0.6485981308411215 0.28264094955489616 0.6476635514018692 0.2818991097922849 0.6467289719626168 0.28264094955489616 0.6457943925233645 0.2841246290801187 0.6457943925233645 0.28486646884273 0.6467289719626168 0.2841246290801187 0.6476635514018692 0.28560830860534125 0.6457943925233645 0.28635014836795253 0.6457943925233645 0.2878338278931751 0.6476635514018692 0.2870919881305638 0.6485981308411215 0.28857566765578635 0.6467289719626168 0.2900593471810089 0.6467289719626168 0.29080118694362017 0.6476635514018692 0.2893175074183976 0.6495327102803738 0.2900593471810089 0.6485981308411215 0.29080118694362017 0.6485981308411215 0.29080118694362017 0.6476635514018692 0.29154302670623145 0.6467289719626168 0.29451038575667654 0.6467289719626168 0.2952522255192878 0.6476635514018692 0.29376854599406527 0.6495327102803738 0.293026706231454 0.6485981308411215 0.2922848664688427 0.6485981308411215 0.293026706231454 0.6485981308411215 0.29376854599406527 0.6495327102803738 0.29451038575667654 0.6485981308411215 0.2952522255192878 0.6495327102803738 0.29451038575667654 0.6485981308411215 0.2952522255192878 0.6476635514018692 0.2959940652818991 0.6476635514018692 0.29747774480712164 0.6495327102803738 0.29673590504451036 0.6485981308411215 0.29747774480712164 0.6476635514018692 0.29896142433234424 0.6476635514018692 0.2997032640949555 0.6485981308411215 0.29896142433234424 0.6495327102803738 0.3004451038575668 0.6476635514018692 0.30118694362017806 0.6485981308411215 0.30118694362017806 0.6495327102803738 0.30192878338278933 0.6485981308411215 0.3078635014836795 0.6485981308411215 0.3086053412462908 0.6495327102803738 0.3137982195845697 0.6495327102803738 0.314540059347181 0.6504672897196262 0.31602373887240354 0.6504672897196262 0.3167655786350148 0.6514018691588785 0.31602373887240354 0.6523364485981309 0.3167655786350148 0.6514018691588785 0.31750741839762614 0.6523364485981309 0.3182492581602374 0.6523364485981309 0.3189910979228487 0.6532710280373831 0.3189910979228487 0.6551401869158878 0.3182492581602374 0.6560747663551402 0.31750741839762614 0.6551401869158878 0.3167655786350148 0.6551401869158878 0.31602373887240354 0.6542056074766355 0.31528189910979226 0.6542056074766355 0.31602373887240354 0.6542056074766355 0.3167655786350148 0.6551401869158878 0.31602373887240354 0.6560747663551402 0.31602373887240354 0.6570093457943925 0.3167655786350148 0.6560747663551402 0.31750741839762614 0.6570093457943925 0.3182492581602374 0.6560747663551402 0.3189910979228487 0.6570093457943925 0.31973293768545996 0.6560747663551402 0.32047477744807124 0.6570093457943925 0.3212166172106825 0.6560747663551402 0.3219584569732938 0.6570093457943925 0.3212166172106825 0.6560747663551402 0.3212166172106825 0.6551401869158878 0.3219584569732938 0.6542056074766355 0.32344213649851633 0.6560747663551402 0.3241839762611276 0.6560747663551402 0.3249258160237389 0.6570093457943925 0.32566765578635015 0.6560747663551402 0.3264094955489614 0.6560747663551402 0.327893175074184 0.6542056074766355 0.32863501483679525 0.6551401869158878 0.3293768545994065 0.6551401869158878 0.33086053412462907 0.6570093457943925 0.3293768545994065 0.6551401869158878 0.3301186943620178 0.6542056074766355 0.33086053412462907 0.6542056074766355 0.33160237388724034 0.6551401869158878 0.33086053412462907 0.6542056074766355 0.33160237388724034 0.6532710280373831 0.3323442136498516 0.6532710280373831 0.3330860534124629 0.6523364485981309 0.33456973293768544 0.6523364485981309 0.3353115727002967 0.6532710280373831 0.33827893175074186 0.6532710280373831 0.33902077151335314 0.6542056074766355 0.3397626112759644 0.6532710280373831 0.34124629080118696 0.6532710280373831 0.3434718100890208 0.6560747663551402 0.34421364985163205 0.6560747663551402 0.34421364985163205 0.6551401869158878 0.3449554896142433 0.6542056074766355 0.3479228486646884 0.6542056074766355 0.3486646884272997 0.6551401869158878 0.34718100890207715 0.6570093457943925 0.3464391691394659 0.6560747663551402 0.3456973293768546 0.6560747663551402 0.3464391691394659 0.6560747663551402 0.34718100890207715 0.6570093457943925 0.3479228486646884 0.6560747663551402 0.3486646884272997 0.6570093457943925 0.3479228486646884 0.6560747663551402 0.3486646884272997 0.6551401869158878 0.34940652818991097 0.6551401869158878 0.35014836795252224 0.6560747663551402 0.3508902077151335 0.6560747663551402 0.3516320474777448 0.6570093457943925 0.3516320474777448 0.6579439252336449 0.3508902077151335 0.6588785046728972 0.3508902077151335 0.6598130841121496 0.3508902077151335 0.6588785046728972 0.35237388724035607 0.6570093457943925 0.3538575667655786 0.6588785046728972 0.3538575667655786 0.6598130841121496 0.35534124629080116 0.6616822429906543 0.3545994065281899 0.6626168224299065 0.35534124629080116 0.6635514018691588 0.3560830860534125 0.6635514018691588 0.35682492581602376 0.6626168224299065 0.35756676557863504 0.6626168224299065 0.3583086053412463 0.6616822429906543 0.3590504451038576 0.6626168224299065 0.35979228486646886 0.6626168224299065 0.36053412462908013 0.6635514018691588 0.36053412462908013 0.6644859813084112 0.3612759643916914 0.6635514018691588 0.3620178041543027 0.6644859813084112 0.3620178041543027 0.6654205607476635 0.36275964391691395 0.6654205607476635 0.36350148367952523 0.6663551401869159 0.36275964391691395 0.6672897196261682 0.3620178041543027 0.6672897196261682 0.36350148367952523 0.6672897196261682 0.3642433234421365 0.6682242990654206 0.3649851632047478 0.6682242990654206 0.36572700296735905 0.6672897196261682 0.3664688427299703 0.6682242990654206 0.36795252225519287 0.6682242990654206 0.3694362017804154 0.6700934579439253 0.3694362017804154 0.6710280373831776 0.36869436201780414 0.6719626168224299 0.36795252225519287 0.6710280373831776 0.3672106824925816 0.6710280373831776 0.3664688427299703 0.6700934579439253 0.3672106824925816 0.6710280373831776 0.36795252225519287 0.6710280373831776 0.36869436201780414 0.6719626168224299 0.3694362017804154 0.6719626168224299 0.3694362017804154 0.6710280373831776 0.3701780415430267 0.6700934579439253 0.37166172106824924 0.6719626168224299 0.3731454005934718 0.6719626168224299 0.37462908011869434 0.6738317757009346 0.37462908011869434 0.6747663551401869 0.37388724035608306 0.6757009345794392 0.37462908011869434 0.6766355140186916 0.37388724035608306 0.6757009345794392 0.37537091988130566 0.6738317757009346 0.37611275964391694 0.6747663551401869 0.3768545994065282 0.6747663551401869 0.3775964391691395 0.6757009345794392 0.3768545994065282 0.6766355140186916 0.37611275964391694 0.6766355140186916 0.37611275964391694 0.677570093457944 0.37537091988130566 0.6785046728971963 0.3768545994065282 0.6766355140186916 0.3775964391691395 0.677570093457944 0.3775964391691395 0.6785046728971963 0.37833827893175076 0.6794392523364486 0.37908011869436203 0.6785046728971963 0.3798219584569733 0.6785046728971963 0.3805637982195846 0.6794392523364486 0.38130563798219586 0.6785046728971963 0.38204747774480713 0.6794392523364486 0.3827893175074184 0.6785046728971963 0.3835311572700297 0.6785046728971963 0.38427299703264095 0.6794392523364486 0.38649851632047477 0.6794392523364486 0.38724035608308605 0.680373831775701 0.38649851632047477 0.6813084112149532 0.38724035608308605 0.6822429906542056 0.3879821958456973 0.6813084112149532 0.39020771513353114 0.6813084112149532 0.3909495548961424 0.6822429906542056 0.39020771513353114 0.6831775700934579 0.3887240356083086 0.6831775700934579 0.3879821958456973 0.6841121495327103 0.3879821958456973 0.6850467289719626 0.3887240356083086 0.6850467289719626 0.3879821958456973 0.6841121495327103 0.3887240356083086 0.6831775700934579 0.39020771513353114 0.6831775700934579 0.3909495548961424 0.6822429906542056 0.3916913946587537 0.6822429906542056 0.39243323442136496 0.6813084112149532 0.39317507418397624 0.6822429906542056 0.39317507418397624 0.6831775700934579 0.39243323442136496 0.6841121495327103 0.3916913946587537 0.6841121495327103 0.39243323442136496 0.6850467289719626 0.3916913946587537 0.685981308411215 0.39243323442136496 0.6850467289719626 0.3939169139465875 0.6869158878504673 0.39317507418397624 0.685981308411215 0.3939169139465875 0.6850467289719626 0.3939169139465875 0.6831775700934579 0.39465875370919884 0.6822429906542056 0.3954005934718101 0.6822429906542056 0.3961424332344214 0.6831775700934579 0.3961424332344214 0.6841121495327103 0.3954005934718101 0.6850467289719626 0.3961424332344214 0.685981308411215 0.3954005934718101 0.6869158878504673 0.3961424332344214 0.685981308411215 0.39688427299703266 0.685981308411215 0.39762611275964393 0.6869158878504673 0.3983679525222552 0.6869158878504673 0.3983679525222552 0.685981308411215 0.39762611275964393 0.6850467289719626 0.39688427299703266 0.6850467289719626 0.3961424332344214 0.6841121495327103 0.39688427299703266 0.6831775700934579 0.3983679525222552 0.6831775700934579 0.3991097922848665 0.6841121495327103 0.4013353115727003 0.6841121495327103 0.40281899109792285 0.685981308411215 0.4035608308605341 0.685981308411215 0.4043026706231454 0.6869158878504673 0.4050445103857567 0.685981308411215 0.40578635014836795 0.6869158878504673 0.4065281899109792 0.685981308411215 0.4072700296735905 0.685981308411215 0.40801186943620177 0.6869158878504673 0.4102373887240356 0.6869158878504673 0.41097922848664686 0.6878504672897197 0.4102373887240356 0.688785046728972 0.41097922848664686 0.6897196261682244 0.41172106824925814 0.688785046728972 0.413946587537092 0.688785046728972 0.4146884272997033 0.6897196261682244 0.413946587537092 0.6906542056074766 0.4124629080118694 0.6906542056074766 0.41172106824925814 0.6915887850467289 0.41172106824925814 0.6925233644859813 0.4124629080118694 0.6925233644859813 0.41172106824925814 0.6915887850467289 0.4124629080118694 0.6906542056074766 0.413946587537092 0.6906542056074766 0.4146884272997033 0.6897196261682244 0.41543026706231456 0.6897196261682244 0.41617210682492584 0.688785046728972 0.4169139465875371 0.6897196261682244 0.4169139465875371 0.6906542056074766 0.41617210682492584 0.6915887850467289 0.41543026706231456 0.6915887850467289 0.41617210682492584 0.6925233644859813 0.41543026706231456 0.6934579439252336 0.41617210682492584 0.6925233644859813 0.4176557863501484 0.694392523364486 0.4169139465875371 0.6934579439252336 0.4176557863501484 0.6925233644859813 0.4176557863501484 0.6906542056074766 0.41839762611275966 0.6897196261682244 0.41913946587537093 0.6897196261682244 0.4198813056379822 0.6906542056074766 0.4198813056379822 0.6915887850467289 0.41913946587537093 0.6925233644859813 0.4198813056379822 0.6934579439252336 0.41913946587537093 0.694392523364486 0.4198813056379822 0.6934579439252336 0.4206231454005935 0.6934579439252336 0.42136498516320475 0.694392523364486 0.422106824925816 0.694392523364486 0.422106824925816 0.6934579439252336 0.42136498516320475 0.6925233644859813 0.4206231454005935 0.6925233644859813 0.4198813056379822 0.6915887850467289 0.4206231454005935 0.6906542056074766 0.422106824925816 0.6906542056074766 0.4228486646884273 0.6915887850467289 0.4250741839762611 0.6915887850467289 0.42655786350148367 0.6934579439252336 0.42729970326409494 0.6934579439252336 0.4280415430267062 0.694392523364486 0.4287833827893175 0.6934579439252336 0.4310089020771513 0.6934579439252336 0.4317507418397626 0.694392523364486 0.43249258160237386 0.6934579439252336 0.4443620178041543 0.6934579439252336 0.44510385756676557 0.6925233644859813 0.45919881305637983 0.6925233644859813 0.4599406528189911 0.6934579439252336 0.45919881305637983 0.694392523364486 0.4599406528189911 0.6934579439252336 0.4606824925816024 0.694392523364486 0.46142433234421365 0.694392523364486 0.4621661721068249 0.6934579439252336 0.46142433234421365 0.694392523364486 0.4606824925816024 0.6934579439252336 0.4599406528189911 0.6934579439252336 0.45919881305637983 0.6925233644859813 0.4599406528189911 0.6915887850467289 0.4688427299703264 0.6915887850467289 0.47032640949554894 0.6934579439252336 0.4710682492581602 0.6925233644859813 0.47181008902077154 0.6934579439252336 0.4725519287833828 0.6934579439252336 0.4732937685459941 0.6925233644859813 0.4725519287833828 0.6915887850467289 0.4732937685459941 0.6906542056074766 0.48293768545994065 0.6906542056074766 0.4836795252225519 0.6897196261682244 0.48516320474777447 0.6897196261682244 0.48590504451038574 0.6906542056074766 0.486646884272997 0.6897196261682244 0.491839762611276 0.6897196261682244 0.49332344213649854 0.6915887850467289 0.49258160237388726 0.6925233644859813 0.486646884272997 0.6925233644859813 0.49258160237388726 0.6925233644859813 0.49332344213649854 0.6915887850467289 0.4940652818991098 0.6915887850467289 0.4948071216617211 0.6925233644859813 0.49332344213649854 0.694392523364486 0.4948071216617211 0.6925233644859813 0.49554896142433236 0.6925233644859813 0.49629080118694363 0.6915887850467289 0.4977744807121662 0.6934579439252336 0.49851632047477745 0.6925233644859813 0.5037091988130564 0.6925233644859813 0.505192878338279 0.694392523364486 0.5059347181008902 0.6934579439252336 0.5066765578635015 0.6934579439252336 0.5081602373887241 0.6915887850467289 0.5089020771513353 0.6925233644859813 0.5089020771513353 0.6934579439252336 0.5081602373887241 0.694392523364486 0.5089020771513353 0.6934579439252336 0.5096439169139466 0.694392523364486 0.5089020771513353 0.6934579439252336 0.5089020771513353 0.6925233644859813 0.5081602373887241 0.6915887850467289 0.5074183976261127 0.6925233644859813 0.505192878338279 0.6897196261682244 0.5059347181008902 0.688785046728972 0.5074183976261127 0.688785046728972 0.5081602373887241 0.6897196261682244 0.5089020771513353 0.6897196261682244 0.5096439169139466 0.6906542056074766 0.5096439169139466 0.6897196261682244 0.5089020771513353 0.6897196261682244 0.5081602373887241 0.688785046728972 0.5089020771513353 0.6878504672897197 0.521513353115727 0.6878504672897197 0.5222551928783383 0.6869158878504673 0.5459940652818991 0.6869158878504673 0.5467359050445104 0.685981308411215 0.548219584569733 0.685981308411215 0.5489614243323442 0.6869158878504673 0.5497032640949555 0.685981308411215 0.5504451038575667 0.685981308411215 0.5511869436201781 0.6869158878504673 0.5519287833827893 0.685981308411215 0.56973293768546 0.685981308411215 0.5704747774480712 0.6869158878504673 0.5712166172106825 0.685981308411215 0.5719584569732937 0.6869158878504673 0.5727002967359051 0.6869158878504673 0.5719584569732937 0.6869158878504673 0.5712166172106825 0.685981308411215 0.5719584569732937 0.6850467289719626 0.5734421364985163 0.6850467289719626 0.5741839762611276 0.685981308411215 0.5749258160237388 0.6850467289719626 0.5927299703264095 0.6850467289719626 0.5934718100890207 0.685981308411215 0.594213649851632 0.685981308411215 0.5949554896142433 0.6869158878504673 0.594213649851632 0.685981308411215 0.5949554896142433 0.6850467289719626 0.5956973293768546 0.6850467289719626 0.5971810089020771 0.6869158878504673 0.5979228486646885 0.6869158878504673 0.5986646884272997 0.685981308411215 0.599406528189911 0.6869158878504673 0.5979228486646885 0.6850467289719626 0.5986646884272997 0.6841121495327103 0.599406528189911 0.6841121495327103 0.6016320474777448 0.6869158878504673 0.6023738872403561 0.685981308411215 0.6031157270029673 0.685981308411215 0.6023738872403561 0.685981308411215 0.6016320474777448 0.6869158878504673 0.6001483679525222 0.6850467289719626 0.6001483679525222 0.6841121495327103 0.6008902077151336 0.6831775700934579 0.6016320474777448 0.6841121495327103 0.6023738872403561 0.6831775700934579 0.6031157270029673 0.6831775700934579 0.6038575667655787 0.6822429906542056 0.6045994065281899 0.6822429906542056 0.6053412462908012 0.6831775700934579 0.6045994065281899 0.6841121495327103 0.6053412462908012 0.6850467289719626 0.6045994065281899 0.685981308411215 0.6053412462908012 0.6850467289719626 0.6060830860534124 0.685981308411215 0.6060830860534124 0.6869158878504673 0.6060830860534124 0.685981308411215 0.6068249258160238 0.6850467289719626 0.607566765578635 0.685981308411215 0.607566765578635 0.6869158878504673 0.6083086053412463 0.685981308411215 0.6090504451038575 0.685981308411215 0.607566765578635 0.685981308411215 0.6068249258160238 0.6850467289719626 0.607566765578635 0.6841121495327103 0.6060830860534124 0.685981308411215 0.6045994065281899 0.6841121495327103 0.6053412462908012 0.6831775700934579 0.6060830860534124 0.6831775700934579 0.607566765578635 0.6813084112149532 0.6097922848664689 0.6813084112149532 0.6105341246290801 0.680373831775701 0.6120178041543026 0.680373831775701 0.612759643916914 0.6813084112149532 0.6135014836795252 0.6813084112149532 0.6142433234421365 0.6822429906542056 0.6142433234421365 0.6831775700934579 0.6135014836795252 0.6841121495327103 0.615727002967359 0.6813084112149532 0.6164688427299704 0.6813084112149532 0.615727002967359 0.6813084112149532 0.6149851632047477 0.680373831775701 0.615727002967359 0.6794392523364486 0.6172106824925816 0.6794392523364486 0.6179525222551929 0.6785046728971963 0.6186943620178041 0.6785046728971963 0.6194362017804155 0.6794392523364486 0.6201780415430267 0.6785046728971963 0.620919881305638 0.6785046728971963 0.6216617210682492 0.677570093457944 0.6238872403560831 0.677570093457944 0.6246290801186943 0.6766355140186916 0.6253709198813057 0.677570093457944 0.6253709198813057 0.6785046728971963 0.6246290801186943 0.6794392523364486 0.6253709198813057 0.6785046728971963 0.6261127596439169 0.6785046728971963 0.6268545994065282 0.6794392523364486 0.6275964391691394 0.6785046728971963 0.6268545994065282 0.6794392523364486 0.6253709198813057 0.677570093457944 0.6261127596439169 0.6766355140186916 0.6283382789317508 0.6766355140186916 0.629080118694362 0.677570093457944 0.629080118694362 0.6785046728971963 0.6298219584569733 0.6794392523364486 0.629080118694362 0.6785046728971963 0.629080118694362 0.677570093457944 0.6283382789317508 0.6766355140186916 0.629080118694362 0.6757009345794392 0.6313056379821959 0.6757009345794392 0.6320474777448071 0.6747663551401869 0.6335311572700296 0.6747663551401869 0.634272997032641 0.6757009345794392 0.6350148367952523 0.6747663551401869 0.6357566765578635 0.6757009345794392 0.6364985163204748 0.6757009345794392 0.637240356083086 0.6766355140186916 0.6357566765578635 0.6785046728971963 0.6364985163204748 0.6794392523364486 0.6357566765578635 0.6785046728971963 0.637240356083086 0.6766355140186916 0.6379821958456974 0.677570093457944 0.6379821958456974 0.6785046728971963 0.6387240356083086 0.6794392523364486 0.6409495548961425 0.6766355140186916 0.642433234421365 0.6766355140186916 0.6439169139465876 0.6785046728971963 0.6431750741839762 0.6794392523364486 0.6439169139465876 0.6785046728971963 0.6446587537091988 0.6794392523364486 0.6461424332344213 0.677570093457944 0.6461424332344213 0.6757009345794392 0.6454005934718101 0.6747663551401869 0.6454005934718101 0.6738317757009346 0.6461424332344213 0.6728971962616822 0.6454005934718101 0.6738317757009346 0.6454005934718101 0.6747663551401869 0.6446587537091988 0.6757009345794392 0.6431750741839762 0.6738317757009346 0.6454005934718101 0.6710280373831776 0.6468842729970327 0.6710280373831776 0.6476261127596439 0.6719626168224299 0.6483679525222552 0.6710280373831776 0.6491097922848664 0.6719626168224299 0.6498516320474778 0.6719626168224299 0.6491097922848664 0.6719626168224299 0.6483679525222552 0.6710280373831776 0.6491097922848664 0.6700934579439253 0.650593471810089 0.6700934579439253 0.6513353115727003 0.6710280373831776 0.6528189910979229 0.6691588785046729 0.6543026706231454 0.6710280373831776 0.6550445103857567 0.6710280373831776 0.655786350148368 0.6719626168224299 0.6565281899109793 0.6710280373831776 0.6565281899109793 0.6700934579439253 0.6580118694362018 0.6682242990654206 0.658753709198813 0.6682242990654206 0.6594955489614244 0.6691588785046729 0.658753709198813 0.6700934579439253 0.6594955489614244 0.6710280373831776 0.6594955489614244 0.6719626168224299 0.6594955489614244 0.6710280373831776 0.6632047477744807 0.6663551401869159 0.6654302670623146 0.6663551401869159 0.6661721068249258 0.6672897196261682 0.6654302670623146 0.6682242990654206 0.6646884272997032 0.6682242990654206 0.6654302670623146 0.6682242990654206 0.6661721068249258 0.6672897196261682 0.6669139465875371 0.6682242990654206 0.6676557863501483 0.6682242990654206 0.6683976261127597 0.6691588785046729 0.6669139465875371 0.6710280373831776 0.6661721068249258 0.6710280373831776 0.6654302670623146 0.6700934579439253 0.663946587537092 0.6719626168224299 0.6646884272997032 0.6710280373831776 0.6654302670623146 0.6719626168224299 0.6661721068249258 0.6710280373831776 0.6669139465875371 0.6710280373831776 0.6676557863501483 0.6719626168224299 0.6683976261127597 0.6719626168224299 0.6691394658753709 0.6710280373831776 0.6698813056379822 0.6719626168224299 0.6691394658753709 0.6710280373831776 0.6691394658753709 0.6700934579439253 0.6698813056379822 0.6691588785046729 0.6698813056379822 0.6682242990654206 0.6691394658753709 0.6672897196261682 0.6691394658753709 0.6654205607476635 0.6698813056379822 0.6644859813084112 0.6691394658753709 0.6654205607476635 0.6683976261127597 0.6644859813084112 0.6683976261127597 0.6635514018691588 0.6691394658753709 0.6626168224299065 0.6691394658753709 0.6616822429906543 0.6683976261127597 0.6616822429906543 0.6676557863501483 0.6607476635514019 0.6683976261127597 0.6598130841121496 0.6683976261127597 0.6588785046728972 0.6691394658753709 0.6579439252336449 0.6691394658753709 0.6560747663551402 0.6698813056379822 0.6551401869158878 0.6713649851632048 0.6570093457943925 0.6713649851632048 0.6551401869158878 0.672106824925816 0.6542056074766355 0.6728486646884273 0.6551401869158878 0.6728486646884273 0.6560747663551402 0.6735905044510386 0.6570093457943925 0.6735905044510386 0.6560747663551402 0.6713649851632048 0.6532710280373831 0.672106824925816 0.6523364485981309 0.6713649851632048 0.6532710280373831 0.6706231454005934 0.6523364485981309 0.6706231454005934 0.6514018691588785 0.6713649851632048 0.6504672897196262 0.672106824925816 0.6504672897196262 0.6713649851632048 0.6495327102803738 0.672106824925816 0.6485981308411215 0.6735905044510386 0.6485981308411215 0.6743323442136498 0.6495327102803738 0.6735905044510386 0.6504672897196262 0.6735905044510386 0.6523364485981309 0.6750741839762612 0.6504672897196262 0.6758160237388724 0.6514018691588785 0.6750741839762612 0.6504672897196262 0.6758160237388724 0.6495327102803738 0.6750741839762612 0.6504672897196262 0.6743323442136498 0.6495327102803738 0.6743323442136498 0.6476635514018692 0.6750741839762612 0.6467289719626168 0.6758160237388724 0.6476635514018692 0.6750741839762612 0.6467289719626168 0.6750741839762612 0.6448598130841121 0.6743323442136498 0.6448598130841121 0.6735905044510386 0.6439252336448598 0.6735905044510386 0.6411214953271028 0.6743323442136498 0.6401869158878505 0.6750741839762612 0.6411214953271028 0.6758160237388724 0.6401869158878505 0.6750741839762612 0.6401869158878505 0.6743323442136498 0.6392523364485981 0.6750741839762612 0.6383177570093458 0.6743323442136498 0.6373831775700934 0.6758160237388724 0.6355140186915887 0.6758160237388724 0.6336448598130842 0.6743323442136498 0.6317757009345795 0.6758160237388724 0.6299065420560748 0.6750741839762612 0.6289719626168224 0.6750741839762612 0.6280373831775701 0.6743323442136498 0.6271028037383177 0.6758160237388724 0.625233644859813 0.6758160237388724 0.6242990654205608 0.6758160237388724 0.625233644859813 0.6750741839762612 0.6261682242990654 0.6743323442136498 0.625233644859813 0.6735905044510386 0.6261682242990654 0.6728486646884273 0.6261682242990654 0.672106824925816 0.625233644859813 0.6735905044510386 0.6233644859813084 0.6728486646884273 0.6224299065420561 0.6743323442136498 0.6205607476635514 0.6750741839762612 0.6214953271028038 0.6750741839762612 0.6224299065420561 0.6758160237388724 0.6224299065420561 0.6743323442136498 0.6205607476635514 0.6750741839762612 0.6196261682242991 0.6728486646884273 0.616822429906542 0.6728486646884273 0.6149532710280374 0.6735905044510386 0.6140186915887851 0.6743323442136498 0.6149532710280374 0.6743323442136498 0.6158878504672897 0.6758160237388724 0.6177570093457944 0.6750741839762612 0.616822429906542 0.6750741839762612 0.6158878504672897 0.6758160237388724 0.6149532710280374 0.6743323442136498 0.6130841121495327 0.6728486646884273 0.6149532710280374 0.6728486646884273 0.616822429906542 0.6735905044510386 0.6177570093457944 0.6728486646884273 0.6186915887850467 0.6713649851632048 0.6186915887850467 0.6706231454005934 0.6177570093457944 0.6713649851632048 0.616822429906542 0.6698813056379822 0.6149532710280374 0.6698813056379822 0.6140186915887851 0.6691394658753709 0.6130841121495327 0.6691394658753709 0.6121495327102804 0.6698813056379822 0.611214953271028 0.6691394658753709 0.611214953271028 0.6683976261127597 0.6102803738317757 0.6691394658753709 0.6093457943925233 0.6698813056379822 0.6093457943925233 0.6691394658753709 0.6093457943925233 0.6683976261127597 0.608411214953271 0.6698813056379822 0.6065420560747663 0.6698813056379822 0.6046728971962617 0.6698813056379822 0.6065420560747663 0.6691394658753709 0.6074766355140186 0.6683976261127597 0.6065420560747663 0.6683976261127597 0.6037383177570094 0.6691394658753709 0.602803738317757 0.6691394658753709 0.6018691588785047 0.6698813056379822 0.6009345794392523 0.6698813056379822 0.6 0.6691394658753709 0.5990654205607476 0.6698813056379822 0.5981308411214953 0.6691394658753709 0.5990654205607476 0.6683976261127597 0.5981308411214953 0.6669139465875371 0.6 0.6661721068249258 0.5990654205607476 0.6661721068249258 0.597196261682243 0.6669139465875371 0.5962616822429907 0.6676557863501483 0.5962616822429907 0.6661721068249258 0.5962616822429907 0.6654302670623146 0.5953271028037384 0.6654302670623146 0.5934579439252337 0.6646884272997032 0.5925233644859813 0.6661721068249258 0.5906542056074766 0.6669139465875371 0.591588785046729 0.6669139465875371 0.5934579439252337 0.6676557863501483 0.594392523364486 0.6669139465875371 0.5934579439252337 0.6669139465875371 0.591588785046729 0.6676557863501483 0.5906542056074766 0.6676557863501483 0.5897196261682243 0.6683976261127597 0.5887850467289719 0.6691394658753709 0.5887850467289719 0.6698813056379822 0.5897196261682243 0.6691394658753709 0.5887850467289719 0.6691394658753709 0.5878504672897197 0.6676557863501483 0.5897196261682243 0.6676557863501483 0.5906542056074766 0.6669139465875371 0.591588785046729 0.6654302670623146 0.5897196261682243 0.6654302670623146 0.5887850467289719 0.6646884272997032 0.5887850467289719 0.663946587537092 0.5878504672897197 0.6646884272997032 0.5869158878504673 0.6661721068249258 0.5869158878504673 0.6669139465875371 0.5878504672897197 0.6676557863501483 0.5869158878504673 0.6654302670623146 0.5841121495327103 0.6654302670623146 0.5831775700934579 0.6654302670623146 0.5841121495327103 0.6646884272997032 0.5850467289719626 0.6632047477744807 0.5831775700934579 0.663946587537092 0.5822429906542056 0.663946587537092 0.5813084112149532 0.6632047477744807 0.5803738317757009 0.663946587537092 0.5794392523364486 0.6624629080118695 0.5813084112149532 0.6617210682492581 0.5813084112149532 0.6609792284866469 0.5803738317757009 0.6624629080118695 0.5785046728971963 0.6617210682492581 0.5785046728971963 0.6617210682492581 0.5794392523364486 0.6609792284866469 0.5803738317757009 0.6602373887240356 0.5794392523364486 0.6602373887240356 0.5785046728971963 0.658753709198813 0.5766355140186916 0.6594955489614244 0.5757009345794393 0.658753709198813 0.5757009345794393 0.6580118694362018 0.5747663551401869 0.6580118694362018 0.5738317757009346 0.6572700296735905 0.5728971962616822 0.6580118694362018 0.5719626168224299 0.6565281899109793 0.5700934579439252 0.6572700296735905 0.569158878504673 0.6572700296735905 0.5682242990654206 0.6580118694362018 0.5672897196261683 0.6580118694362018 0.5663551401869159 0.6572700296735905 0.5654205607476636 0.6580118694362018 0.5644859813084112 0.6565281899109793 0.5663551401869159 0.655786350148368 0.5663551401869159 0.6550445103857567 0.5654205607476636 0.6565281899109793 0.5635514018691589 0.655786350148368 0.5635514018691589 0.655786350148368 0.5644859813084112 0.6550445103857567 0.5654205607476636 0.6543026706231454 0.5644859813084112 0.6543026706231454 0.5635514018691589 0.6528189910979229 0.5616822429906542 0.6535608308605341 0.5607476635514018 0.6528189910979229 0.5607476635514018 0.6520771513353115 0.5598130841121496 0.6520771513353115 0.5588785046728972 0.6513353115727003 0.5579439252336449 0.6520771513353115 0.5570093457943925 0.650593471810089 0.5551401869158878 0.6513353115727003 0.5542056074766355 0.6513353115727003 0.5532710280373832 0.6520771513353115 0.5523364485981308 0.6520771513353115 0.5514018691588785 0.6513353115727003 0.5504672897196262 0.6520771513353115 0.5495327102803739 0.650593471810089 0.5514018691588785 0.6498516320474778 0.5514018691588785 0.6491097922848664 0.5504672897196262 0.650593471810089 0.5485981308411215 0.6498516320474778 0.5485981308411215 0.6498516320474778 0.5495327102803739 0.6491097922848664 0.5504672897196262 0.6483679525222552 0.5495327102803739 0.6483679525222552 0.5485981308411215 0.6468842729970327 0.5467289719626168 0.6476261127596439 0.5457943925233645 0.6468842729970327 0.5457943925233645 0.6461424332344213 0.5448598130841121 0.6461424332344213 0.5439252336448598 0.6454005934718101 0.5429906542056074 0.6461424332344213 0.5420560747663551 0.6446587537091988 0.5401869158878505 0.6454005934718101 0.5392523364485982 0.6454005934718101 0.5383177570093458 0.6461424332344213 0.5373831775700935 0.6461424332344213 0.5364485981308411 0.6454005934718101 0.5355140186915888 0.6461424332344213 0.5345794392523364 0.6446587537091988 0.5364485981308411 0.6439169139465876 0.5364485981308411 0.6431750741839762 0.5355140186915888 0.6446587537091988 0.5336448598130841 0.6439169139465876 0.5336448598130841 0.6439169139465876 0.5345794392523364 0.6431750741839762 0.5355140186915888 0.642433234421365 0.5345794392523364 0.642433234421365 0.5336448598130841 0.6409495548961425 0.5317757009345795 0.6416913946587537 0.5308411214953271 0.6409495548961425 0.5308411214953271 0.6402077151335311 0.5299065420560748 0.6402077151335311 0.5289719626168224 0.6394658753709199 0.5280373831775701 0.6402077151335311 0.5271028037383177 0.6387240356083086 0.525233644859813 0.6394658753709199 0.5242990654205607 0.6394658753709199 0.5233644859813084 0.6402077151335311 0.5224299065420561 0.6402077151335311 0.5214953271028038 0.6394658753709199 0.5205607476635514 0.6402077151335311 0.5196261682242991 0.6387240356083086 0.5214953271028038 0.6379821958456974 0.5214953271028038 0.637240356083086 0.5205607476635514 0.6387240356083086 0.5186915887850467 0.6379821958456974 0.5186915887850467 0.6379821958456974 0.5196261682242991 0.637240356083086 0.5205607476635514 0.6364985163204748 0.5196261682242991 0.6364985163204748 0.5186915887850467 0.6350148367952523 0.516822429906542 0.6357566765578635 0.5158878504672897 0.6350148367952523 0.5158878504672897 0.634272997032641 0.5149532710280373 0.634272997032641 0.514018691588785 0.6335311572700296 0.5130841121495328 0.634272997032641 0.5121495327102804 0.6327893175074184 0.5102803738317757 0.6335311572700296 0.5093457943925234 0.6335311572700296 0.508411214953271 0.634272997032641 0.5074766355140187 0.634272997032641 0.5065420560747663 0.6335311572700296 0.505607476635514 0.634272997032641 0.5046728971962616 0.6327893175074184 0.5065420560747663 0.6320474777448071 0.5065420560747663 0.6313056379821959 0.505607476635514 0.6327893175074184 0.5037383177570094 0.6320474777448071 0.5037383177570094 0.6320474777448071 0.5046728971962616 0.6313056379821959 0.505607476635514 0.6305637982195845 0.5046728971962616 0.6305637982195845 0.5037383177570094 0.629080118694362 0.5018691588785047 0.6298219584569733 0.5009345794392523 0.629080118694362 0.5009345794392523 0.6283382789317508 0.5 0.6283382789317508 0.4981308411214953 0.6275964391691394 0.497196261682243 0.6275964391691394 0.49626168224299066 0.6268545994065282 0.4953271028037383 0.6275964391691394 0.49439252336448597 0.6275964391691394 0.49252336448598133 0.6283382789317508 0.491588785046729 0.6275964391691394 0.49065420560747663 0.6268545994065282 0.491588785046729 0.6261127596439169 0.49065420560747663 0.6261127596439169 0.4897196261682243 0.6268545994065282 0.48878504672897194 0.6275964391691394 0.48878504672897194 0.6261127596439169 0.48878504672897194 0.6253709198813057 0.48785046728971965 0.6261127596439169 0.4869158878504673 0.6268545994065282 0.4869158878504673 0.6261127596439169 0.4869158878504673 0.6253709198813057 0.48598130841121495 0.6268545994065282 0.48411214953271026 0.6275964391691394 0.48411214953271026 0.6283382789317508 0.4850467289719626 0.6275964391691394 0.48411214953271026 0.6275964391691394 0.48317757009345796 0.6253709198813057 0.48598130841121495 0.6261127596439169 0.4869158878504673 0.6246290801186943 0.48878504672897194 0.6238872403560831 0.48785046728971965 0.6238872403560831 0.4869158878504673 0.6231454005934718 0.48598130841121495 0.6238872403560831 0.4850467289719626 0.6238872403560831 0.48411214953271026 0.6231454005934718 0.48411214953271026 0.6224035608308606 0.48317757009345796 0.6231454005934718 0.4822429906542056 0.6246290801186943 0.4822429906542056 0.6253709198813057 0.48317757009345796 0.6261127596439169 0.4822429906542056 0.6238872403560831 0.4794392523364486 0.6238872403560831 0.4785046728971963 0.6238872403560831 0.4794392523364486 0.6231454005934718 0.4803738317757009 0.6246290801186943 0.4803738317757009 0.6253709198813057 0.48130841121495327 0.6246290801186943 0.4822429906542056 0.6224035608308606 0.4822429906542056 0.6216617210682492 0.48130841121495327 0.6216617210682492 0.4803738317757009 0.620919881305638 0.4794392523364486 0.620919881305638 0.4785046728971963 0.6216617210682492 0.47757009345794393 0.620919881305638 0.4785046728971963 0.6201780415430267 0.47757009345794393 0.6201780415430267 0.4766355140186916 0.620919881305638 0.47570093457943924 0.6201780415430267 0.4766355140186916 0.6194362017804155 0.47570093457943924 0.6194362017804155 0.4747663551401869 0.6201780415430267 0.4738317757009346 0.6194362017804155 0.47289719626168225 0.6186943620178041 0.47289719626168225 0.6179525222551929 0.4719626168224299 0.6186943620178041 0.47102803738317756 0.6194362017804155 0.47102803738317756 0.6194362017804155 0.4700934579439252 0.6186943620178041 0.4691588785046729 0.6194362017804155 0.4700934579439252 0.6186943620178041 0.47102803738317756 0.6179525222551929 0.47102803738317756 0.6172106824925816 0.4700934579439252 0.6172106824925816 0.4691588785046729 0.6164688427299704 0.46822429906542057 0.6164688427299704 0.4672897196261682 0.6172106824925816 0.4663551401869159 0.6179525222551929 0.4672897196261682 0.6186943620178041 0.4663551401869159 0.6194362017804155 0.4663551401869159 0.6194362017804155 0.46448598130841123 0.6201780415430267 0.4635514018691589 0.620919881305638 0.4635514018691589 0.6201780415430267 0.4635514018691589 0.6194362017804155 0.46448598130841123 0.6186943620178041 0.4635514018691589 0.6186943620178041 0.46448598130841123 0.6179525222551929 0.4654205607476635 0.6172106824925816 0.46448598130841123 0.6172106824925816 0.4635514018691589 0.6172106824925816 0.46448598130841123 0.6164688427299704 0.4654205607476635 0.615727002967359 0.46448598130841123 0.615727002967359 0.46261682242990654 0.6149851632047477 0.4616822429906542 0.6164688427299704 0.45981308411214955 0.615727002967359 0.46074766355140184 0.6142433234421365 0.46074766355140184 0.6135014836795252 0.45981308411214955 0.6142433234421365 0.4588785046728972 0.6135014836795252 0.45794392523364486 0.6135014836795252 0.4570093457943925 0.612759643916914 0.45607476635514016 0.6135014836795252 0.45514018691588787 0.612759643916914 0.45607476635514016 0.6120178041543026 0.45514018691588787 0.6120178041543026 0.4542056074766355 0.6112759643916914 0.4532710280373832 0.6112759643916914 0.4523364485981308 0.6105341246290801 0.4514018691588785 0.6112759643916914 0.4504672897196262 0.6120178041543026 0.4504672897196262 0.612759643916914 0.4514018691588785 0.612759643916914 0.4523364485981308 0.6135014836795252 0.4523364485981308 0.6142433234421365 0.4532710280373832 0.6149851632047477 0.4532710280373832 0.615727002967359 0.4542056074766355 0.6149851632047477 0.45514018691588787 0.6164688427299704 0.4532710280373832 0.615727002967359 0.4542056074766355 0.6149851632047477 0.4532710280373832 0.6142433234421365 0.4532710280373832 0.6135014836795252 0.4523364485981308 0.6149851632047477 0.4504672897196262 0.615727002967359 0.4514018691588785 0.6164688427299704 0.4514018691588785 0.615727002967359 0.4514018691588785 0.6149851632047477 0.4504672897196262 0.6149851632047477 0.44953271028037384 0.615727002967359 0.4485981308411215 0.6164688427299704 0.44953271028037384 0.615727002967359 0.4485981308411215 0.6149851632047477 0.44953271028037384 0.6142433234421365 0.4485981308411215 0.6135014836795252 0.44953271028037384 0.6142433234421365 0.4485981308411215 0.6149851632047477 0.44953271028037384 0.6149851632047477 0.4504672897196262 0.6135014836795252 0.4523364485981308 0.6120178041543026 0.4504672897196262 0.6112759643916914 0.4504672897196262 0.6097922848664689 0.4485981308411215 0.6097922848664689 0.44766355140186914 0.6105341246290801 0.44672897196261685 0.6097922848664689 0.44766355140186914 0.6083086053412463 0.4457943925233645 0.6090504451038575 0.44485981308411215 0.6097922848664689 0.44485981308411215 0.6090504451038575 0.44485981308411215 0.6083086053412463 0.4439252336448598 0.607566765578635 0.4439252336448598 0.6060830860534124 0.44205607476635517 0.607566765578635 0.44018691588785047 0.6068249258160238 0.4392523364485981 0.607566765578635 0.44018691588785047 0.6068249258160238 0.4411214953271028 0.6060830860534124 0.4411214953271028 0.6053412462908012 0.44018691588785047 0.6053412462908012 0.4392523364485981 0.6038575667655787 0.4373831775700935 0.6038575667655787 0.43644859813084114 0.6031157270029673 0.4355140186915888 0.6045994065281899 0.4336448598130841 0.6060830860534124 0.4355140186915888 0.6053412462908012 0.43644859813084114 0.6060830860534124 0.4373831775700935 0.6068249258160238 0.43644859813084114 0.607566765578635 0.43644859813084114 0.607566765578635 0.43457943925233644 0.6083086053412463 0.4336448598130841 0.6090504451038575 0.4336448598130841 0.6083086053412463 0.4336448598130841 0.607566765578635 0.43457943925233644 0.6068249258160238 0.4336448598130841 0.6068249258160238 0.43457943925233644 0.6060830860534124 0.4355140186915888 0.6053412462908012 0.43457943925233644 0.6053412462908012 0.4336448598130841 0.6045994065281899 0.4336448598130841 0.6038575667655787 0.4327102803738318 0.6045994065281899 0.43177570093457945 0.6038575667655787 0.4308411214953271 0.6045994065281899 0.42990654205607476 0.6038575667655787 0.4289719626168224 0.6045994065281899 0.4280373831775701 0.6045994065281899 0.42710280373831777 0.6045994065281899 0.4280373831775701 0.6038575667655787 0.4289719626168224 0.6023738872403561 0.42710280373831777 0.6031157270029673 0.4261682242990654 0.6023738872403561 0.42710280373831777 0.6031157270029673 0.4280373831775701 0.6031157270029673 0.4289719626168224 0.6038575667655787 0.4289719626168224 0.6045994065281899 0.42990654205607476 0.6031157270029673 0.43177570093457945 0.6038575667655787 0.4327102803738318 0.6031157270029673 0.4336448598130841 0.6023738872403561 0.4336448598130841 0.6008902077151336 0.43177570093457945 0.6016320474777448 0.4308411214953271 0.6008902077151336 0.4308411214953271 0.6001483679525222 0.42990654205607476 0.6008902077151336 0.4289719626168224 0.6016320474777448 0.4289719626168224 0.6008902077151336 0.4289719626168224 0.6001483679525222 0.4280373831775701 0.6001483679525222 0.42710280373831777 0.6008902077151336 0.4261682242990654 0.599406528189911 0.4280373831775701 0.5979228486646885 0.4261682242990654 0.5986646884272997 0.4252336448598131 0.5986646884272997 0.42429906542056073 0.5971810089020771 0.4224299065420561 0.5979228486646885 0.42149532710280374 0.5986646884272997 0.42149532710280374 0.5979228486646885 0.4205607476635514 0.5986646884272997 0.41962616822429905 0.5986646884272997 0.41869158878504675 0.5986646884272997 0.41962616822429905 0.5979228486646885 0.4205607476635514 0.5971810089020771 0.41962616822429905 0.5971810089020771 0.4177570093457944 0.5979228486646885 0.41682242990654206 0.5986646884272997 0.41682242990654206 0.5986646884272997 0.4158878504672897 0.5979228486646885 0.41495327102803736 0.5971810089020771 0.41495327102803736 0.5956973293768546 0.4130841121495327 0.5949554896142433 0.4130841121495327 0.5956973293768546 0.4130841121495327 0.5971810089020771 0.41495327102803736 0.5964391691394659 0.4158878504672897 0.5971810089020771 0.41495327102803736 0.5979228486646885 0.41495327102803736 0.5986646884272997 0.4158878504672897 0.5971810089020771 0.4177570093457944 0.5971810089020771 0.41869158878504675 0.5956973293768546 0.4205607476635514 0.594213649851632 0.41869158878504675 0.5949554896142433 0.4177570093457944 0.594213649851632 0.4177570093457944 0.5934718100890207 0.41682242990654206 0.594213649851632 0.4158878504672897 0.5949554896142433 0.4158878504672897 0.5949554896142433 0.41495327102803736 0.5934718100890207 0.41682242990654206 0.5927299703264095 0.4158878504672897 0.5927299703264095 0.41495327102803736 0.5934718100890207 0.41401869158878507 0.5927299703264095 0.41495327102803736 0.591246290801187 0.4130841121495327 0.591246290801187 0.4121495327102804 0.5905044510385756 0.411214953271028 0.591246290801187 0.4102803738317757 0.5905044510385756 0.411214953271028 0.5897626112759644 0.4102803738317757 0.5897626112759644 0.4093457943925234 0.5890207715133531 0.40841121495327104 0.5882789317507419 0.40841121495327104 0.5867952522255193 0.40654205607476634 0.5875370919881305 0.405607476635514 0.5867952522255193 0.40654205607476634 0.586053412462908 0.40654205607476634 0.5853115727002968 0.405607476635514 0.5867952522255193 0.40373831775700936 0.586053412462908 0.402803738317757 0.5867952522255193 0.40186915887850466 0.586053412462908 0.402803738317757 0.5853115727002968 0.40186915887850466 0.5853115727002968 0.4009345794392523 0.586053412462908 0.4 0.5853115727002968 0.4009345794392523 0.5853115727002968 0.40186915887850466 0.5845697329376854 0.402803738317757 0.5830860534124629 0.402803738317757 0.5823442136498517 0.40186915887850466 0.5823442136498517 0.4009345794392523 0.5838278931750742 0.3990654205607477 0.5845697329376854 0.3990654205607477 0.5853115727002968 0.3981308411214953 0.5853115727002968 0.397196261682243 0.586053412462908 0.39626168224299063 0.5853115727002968 0.39626168224299063 0.5853115727002968 0.3981308411214953 0.5845697329376854 0.3990654205607477 0.5838278931750742 0.3990654205607477 0.5823442136498517 0.4009345794392523 0.5808605341246291 0.3990654205607477 0.5808605341246291 0.3981308411214953 0.5816023738872403 0.397196261682243 0.5823442136498517 0.3981308411214953 0.5838278931750742 0.39626168224299063 0.5830860534124629 0.39626168224299063 0.5830860534124629 0.397196261682243 0.5823442136498517 0.3981308411214953 0.5808605341246291 0.39626168224299063 0.5801186943620178 0.397196261682243 0.5793768545994066 0.397196261682243 0.5786350148367952 0.39626168224299063 0.5801186943620178 0.394392523364486 0.5808605341246291 0.394392523364486 0.5808605341246291 0.39345794392523364 0.5801186943620178 0.3925233644859813 0.5793768545994066 0.3925233644859813 0.577893175074184 0.39065420560747666 0.5771513353115727 0.39065420560747666 0.577893175074184 0.39065420560747666 0.5793768545994066 0.3925233644859813 0.5786350148367952 0.39345794392523364 0.5793768545994066 0.3925233644859813 0.5801186943620178 0.3925233644859813 0.5808605341246291 0.39345794392523364 0.5786350148367952 0.39626168224299063 0.577893175074184 0.39626168224299063 0.5771513353115727 0.39532710280373834 0.5764094955489614 0.39532710280373834 0.5756676557863502 0.394392523364486 0.5764094955489614 0.39345794392523364 0.5771513353115727 0.39345794392523364 0.5771513353115727 0.3925233644859813 0.5756676557863502 0.394392523364486 0.5749258160237388 0.39345794392523364 0.5749258160237388 0.3925233644859813 0.5756676557863502 0.39158878504672895 0.5741839762611276 0.3897196261682243 0.5734421364985163 0.39065420560747666 0.5727002967359051 0.39065420560747666 0.5719584569732937 0.3897196261682243 0.5741839762611276 0.38691588785046727 0.5749258160237388 0.38691588785046727 0.5749258160237388 0.385981308411215 0.5741839762611276 0.3850467289719626 0.5734421364985163 0.3850467289719626 0.5719584569732937 0.38317757009345793 0.5712166172106825 0.38317757009345793 0.5719584569732937 0.38317757009345793 0.5734421364985163 0.3850467289719626 0.5727002967359051 0.385981308411215 0.5734421364985163 0.3850467289719626 0.5741839762611276 0.3850467289719626 0.5749258160237388 0.385981308411215 0.5719584569732937 0.3897196261682243 0.5712166172106825 0.38878504672897196 0.5712166172106825 0.3878504672897196 0.5704747774480712 0.3878504672897196 0.56973293768546 0.38691588785046727 0.5704747774480712 0.385981308411215 0.5712166172106825 0.385981308411215 0.5712166172106825 0.3850467289719626 0.56973293768546 0.38691588785046727 0.5689910979228486 0.38691588785046727 0.5682492581602374 0.385981308411215 0.56973293768546 0.3841121495327103 0.5689910979228486 0.38317757009345793 0.5682492581602374 0.3841121495327103 0.5675074183976261 0.38317757009345793 0.5660237388724035 0.38317757009345793 0.5652818991097923 0.3822429906542056 0.5675074183976261 0.3794392523364486 0.5682492581602374 0.3794392523364486 0.5689910979228486 0.38037383177570094 0.5682492581602374 0.3794392523364486 0.5682492581602374 0.37850467289719625 0.5652818991097923 0.3822429906542056 0.564540059347181 0.3813084112149533 0.564540059347181 0.3794392523364486 0.5637982195845698 0.3794392523364486 0.5630563798219584 0.37850467289719625 0.5637982195845698 0.3775700934579439 0.5652818991097923 0.3775700934579439 0.5660237388724035 0.37850467289719625 0.5667655786350149 0.3775700934579439 0.564540059347181 0.3747663551401869 0.564540059347181 0.37383177570093457 0.564540059347181 0.3747663551401869 0.5637982195845698 0.37570093457943926 0.5630563798219584 0.3747663551401869 0.5637982195845698 0.37570093457943926 0.5630563798219584 0.3766355140186916 0.5637982195845698 0.3775700934579439 0.5630563798219584 0.37850467289719625 0.5623145400593472 0.37850467289719625 0.5615727002967359 0.3775700934579439 0.5615727002967359 0.3747663551401869 0.5615727002967359 0.37570093457943926 0.5608308605341247 0.3766355140186916 0.5593471810089021 0.3747663551401869 0.5600890207715133 0.37383177570093457 0.5593471810089021 0.3747663551401869 0.5586053412462908 0.3747663551401869 0.5556379821958457 0.3710280373831776 0.5563798219584569 0.37009345794392523 0.5571216617210683 0.37009345794392523 0.5571216617210683 0.3691588785046729 0.5563798219584569 0.36822429906542054 0.5571216617210683 0.36728971962616824 0.5563798219584569 0.36822429906542054 0.5556379821958457 0.36728971962616824 0.5556379821958457 0.3663551401869159 0.5541543026706232 0.3644859813084112 0.5548961424332344 0.36355140186915885 0.5556379821958457 0.36355140186915885 0.5571216617210683 0.36542056074766355 0.5571216617210683 0.3644859813084112 0.5563798219584569 0.3644859813084112 0.5556379821958457 0.36355140186915885 0.5548961424332344 0.36355140186915885 0.5541543026706232 0.3644859813084112 0.5534124629080118 0.3644859813084112 0.5526706231454006 0.36355140186915885 0.5526706231454006 0.36261682242990656 0.5534124629080118 0.3616822429906542 0.5541543026706232 0.3616822429906542 0.5534124629080118 0.3616822429906542 0.5526706231454006 0.36074766355140186 0.5541543026706232 0.35887850467289717 0.5526706231454006 0.36074766355140186 0.5519287833827893 0.3598130841121495 0.5519287833827893 0.35887850467289717 0.5511869436201781 0.35887850467289717 0.5504451038575667 0.3579439252336449 0.5504451038575667 0.35700934579439253 0.5497032640949555 0.3560747663551402 0.5497032640949555 0.3532710280373832 0.5504451038575667 0.35233644859813085 0.5511869436201781 0.35233644859813085 0.5504451038575667 0.35233644859813085 0.5497032640949555 0.3514018691588785 0.5504451038575667 0.35046728971962615 0.5511869436201781 0.35046728971962615 0.5511869436201781 0.34953271028037386 0.5504451038575667 0.3485981308411215 0.5511869436201781 0.34766355140186916 0.5497032640949555 0.34953271028037386 0.5489614243323442 0.34953271028037386 0.548219584569733 0.3485981308411215 0.5497032640949555 0.3467289719626168 0.5489614243323442 0.3467289719626168 0.5489614243323442 0.34766355140186916 0.548219584569733 0.3485981308411215 0.5474777448071216 0.34766355140186916 0.5474777448071216 0.3467289719626168 0.5459940652818991 0.3448598130841122 0.5467359050445104 0.34392523364485983 0.5467359050445104 0.34205607476635513 0.5459940652818991 0.34205607476635513 0.5452522255192879 0.3411214953271028 0.5459940652818991 0.3401869158878505 0.5474777448071216 0.3401869158878505 0.548219584569733 0.3411214953271028 0.5489614243323442 0.3401869158878505 0.5467359050445104 0.33738317757009345 0.5467359050445104 0.3364485981308411 0.5467359050445104 0.33738317757009345 0.5459940652818991 0.3383177570093458 0.5474777448071216 0.3383177570093458 0.548219584569733 0.33925233644859815 0.5474777448071216 0.3401869158878505 0.5452522255192879 0.3401869158878505 0.5445103857566765 0.33925233644859815 0.5445103857566765 0.3383177570093458 0.5437685459940653 0.33738317757009345 0.5437685459940653 0.3355140186915888 0.5445103857566765 0.33457943925233646 0.5437685459940653 0.3355140186915888 0.543026706231454 0.33457943925233646 0.543026706231454 0.3336448598130841 0.5422848664688428 0.33271028037383177 0.5422848664688428 0.3317757009345794 0.543026706231454 0.33084112149532713 0.5437685459940653 0.3317757009345794 0.5445103857566765 0.33084112149532713 0.5452522255192879 0.3317757009345794 0.5452522255192879 0.33271028037383177 0.5452522255192879 0.33084112149532713 0.5445103857566765 0.33084112149532713 0.5437685459940653 0.3299065420560748 0.5437685459940653 0.3280373831775701 0.543026706231454 0.32710280373831774 0.5437685459940653 0.32616822429906545 0.5445103857566765 0.32616822429906545 0.5452522255192879 0.32710280373831774 0.5445103857566765 0.32616822429906545 0.5452522255192879 0.3252336448598131 0.5422848664688428 0.32149532710280376 0.5415430267062314 0.32242990654205606 0.5408011869436202 0.32149532710280376 0.5415430267062314 0.32242990654205606 0.5415430267062314 0.3233644859813084 0.5408011869436202 0.32429906542056075 0.537833827893175 0.3205607476635514 0.5393175074183977 0.3186915887850467 0.537833827893175 0.3205607476635514 0.5370919881305638 0.31962616822429907 0.5370919881305638 0.3186915887850467 0.537833827893175 0.3177570093457944 0.5370919881305638 0.3168224299065421 0.537833827893175 0.31588785046728973 0.5385756676557863 0.31588785046728973 0.5393175074183977 0.3168224299065421 0.5385756676557863 0.31588785046728973 0.537833827893175 0.31588785046728973 0.5370919881305638 0.3149532710280374 0.537833827893175 0.31401869158878504 0.5370919881305638 0.3149532710280374 0.5363501483679525 0.3149532710280374 0.5356083086053413 0.31588785046728973 0.5348664688427299 0.3149532710280374 0.5348664688427299 0.31401869158878504 0.5341246290801187 0.31401869158878504 0.5326409495548962 0.3121495327102804 0.5326409495548962 0.31121495327102805 0.5318991097922848 0.3102803738317757 0.5326409495548962 0.30934579439252335 0.5333827893175074 0.30934579439252335 0.5333827893175074 0.308411214953271 0.5318991097922848 0.3102803738317757 0.5311572700296736 0.30934579439252335 0.5311572700296736 0.30654205607476637 0.5318991097922848 0.305607476635514 0.5326409495548962 0.30654205607476637 0.5333827893175074 0.30654205607476637 0.5326409495548962 0.30654205607476637 0.5318991097922848 0.305607476635514 0.5326409495548962 0.30467289719626167 0.5333827893175074 0.30467289719626167 0.5333827893175074 0.3037383177570093 0.5326409495548962 0.30280373831775703 0.5318991097922848 0.30280373831775703 0.5304154302670623 0.30093457943925234 0.5296735905044511 0.30093457943925234 0.5304154302670623 0.30093457943925234 0.5318991097922848 0.30280373831775703 0.5311572700296736 0.3037383177570093 0.5318991097922848 0.30280373831775703 0.5326409495548962 0.30280373831775703 0.5333827893175074 0.3037383177570093 0.5311572700296736 0.30654205607476637 0.5311572700296736 0.3074766355140187 0.5304154302670623 0.308411214953271 0.5296735905044511 0.3074766355140187 0.5296735905044511 0.305607476635514 0.5289317507418397 0.305607476635514 0.5281899109792285 0.30467289719626167 0.5289317507418397 0.3037383177570093 0.5296735905044511 0.3037383177570093 0.5296735905044511 0.30280373831775703 0.5281899109792285 0.30467289719626167 0.526706231454006 0.30280373831775703 0.526706231454006 0.3018691588785047 0.5274480712166172 0.30093457943925234 0.5281899109792285 0.3018691588785047 0.5274480712166172 0.30093457943925234 0.526706231454006 0.3018691588785047 0.5259643916913946 0.30093457943925234 0.5259643916913946 0.3 0.5274480712166172 0.29813084112149535 0.526706231454006 0.297196261682243 0.5274480712166172 0.29626168224299065 0.526706231454006 0.297196261682243 0.5259643916913946 0.297196261682243 0.5252225519287834 0.29626168224299065 0.526706231454006 0.29439252336448596 0.5252225519287834 0.29626168224299065 0.5237388724035609 0.29439252336448596 0.5229970326409495 0.29439252336448596 0.5222551928783383 0.29345794392523367 0.521513353115727 0.29345794392523367 0.5207715133531158 0.2925233644859813 0.5207715133531158 0.2906542056074766 0.521513353115727 0.2897196261682243 0.521513353115727 0.28785046728971964 0.5207715133531158 0.288785046728972 0.521513353115727 0.2897196261682243 0.5200296735905044 0.29158878504672897 0.5192878338278932 0.2906542056074766 0.5192878338278932 0.288785046728972 0.5185459940652819 0.28785046728971964 0.5185459940652819 0.28598130841121494 0.5192878338278932 0.2850467289719626 0.5185459940652819 0.28598130841121494 0.5178041543026706 0.28598130841121494 0.5170623145400594 0.2850467289719626 0.516320474777448 0.28598130841121494 0.5148367952522255 0.2841121495327103 0.5148367952522255 0.28317757009345795 0.5155786350148368 0.2822429906542056 0.5148367952522255 0.28317757009345795 0.5140949554896143 0.2822429906542056 0.5140949554896143 0.28130841121495326 0.5133531157270029 0.28130841121495326 0.5126112759643917 0.2803738317757009 0.5133531157270029 0.2794392523364486 0.5126112759643917 0.2794392523364486 0.5118694362017804 0.27850467289719627 0.5118694362017804 0.2775700934579439 0.5126112759643917 0.2766355140186916 0.5140949554896143 0.2766355140186916 0.5126112759643917 0.2766355140186916 0.5118694362017804 0.2775700934579439 0.5111275964391692 0.2775700934579439 0.5096439169139466 0.2757009345794392 0.5096439169139466 0.27476635514018694 0.5089020771513353 0.2738317757009346 0.5096439169139466 0.27289719626168224 0.5089020771513353 0.2719626168224299 0.5096439169139466 0.27102803738317754 0.5089020771513353 0.2719626168224299 0.5081602373887241 0.27102803738317754 0.5066765578635015 0.27102803738317754 0.5059347181008902 0.27009345794392525 0.5081602373887241 0.2672897196261682 0.5089020771513353 0.2672897196261682 0.5096439169139466 0.26822429906542056 0.5089020771513353 0.2672897196261682 0.5089020771513353 0.26635514018691586 0.5059347181008902 0.27009345794392525 0.505192878338279 0.2691588785046729 0.505192878338279 0.2672897196261682 0.5037091988130564 0.2672897196261682 0.5014836795252225 0.2644859813084112 0.5022255192878339 0.2635514018691589 0.5029673590504451 0.2635514018691589 0.5044510385756676 0.26542056074766357 0.5059347181008902 0.26542056074766357 0.5066765578635015 0.26635514018691586 0.5074183976261127 0.26542056074766357 0.505192878338279 0.2626168224299065 0.505192878338279 0.2616822429906542 0.505192878338279 0.2626168224299065 0.5037091988130564 0.2644859813084112 0.5029673590504451 0.2635514018691589 0.5022255192878339 0.2635514018691589 0.5 0.2607476635514019 0.4992581602373887 0.2607476635514019 0.49851632047477745 0.25981308411214954 0.4992581602373887 0.2588785046728972 0.5 0.2588785046728972 0.5 0.25794392523364484 0.49851632047477745 0.25981308411214954 0.4977744807121662 0.2588785046728972 0.4977744807121662 0.25794392523364484 0.49851632047477745 0.2570093457943925 0.4970326409495549 0.25514018691588786 0.49629080118694363 0.2560747663551402 0.49554896142433236 0.2560747663551402 0.4948071216617211 0.25514018691588786 0.4970326409495549 0.2523364485981308 0.4977744807121662 0.2523364485981308 0.4977744807121662 0.2514018691588785 0.4970326409495549 0.2504672897196262 0.49629080118694363 0.2504672897196262 0.4948071216617211 0.2485981308411215 0.4940652818991098 0.2485981308411215 0.4948071216617211 0.2485981308411215 0.49629080118694363 0.2504672897196262 0.49554896142433236 0.2514018691588785 0.49629080118694363 0.2504672897196262 0.4970326409495549 0.2504672897196262 0.4977744807121662 0.2514018691588785 0.4948071216617211 0.25514018691588786 0.4940652818991098 0.2542056074766355 0.4940652818991098 0.25327102803738316 0.49332344213649854 0.25327102803738316 0.49258160237388726 0.2523364485981308 0.49332344213649854 0.2514018691588785 0.4940652818991098 0.2514018691588785 0.4940652818991098 0.2504672897196262 0.49258160237388726 0.2523364485981308 0.491839762611276 0.2514018691588785 0.491839762611276 0.2504672897196262 0.49258160237388726 0.24953271028037383 0.4910979228486647 0.24766355140186916 0.4903560830860534 0.2485981308411215 0.4896142433234421 0.2485981308411215 0.48887240356083084 0.24766355140186916 0.4896142433234421 0.2467289719626168 0.4896142433234421 0.2457943925233645 0.4903560830860534 0.24485981308411214 0.4910979228486647 0.2457943925233645 0.491839762611276 0.24485981308411214 0.4910979228486647 0.2457943925233645 0.4903560830860534 0.24485981308411214 0.4903560830860534 0.24392523364485982 0.4910979228486647 0.24299065420560748 0.4903560830860534 0.24392523364485982 0.4903560830860534 0.24485981308411214 0.4896142433234421 0.2457943925233645 0.48813056379821956 0.2457943925233645 0.4873887240356083 0.24485981308411214 0.4873887240356083 0.24392523364485982 0.48887240356083084 0.24205607476635513 0.4896142433234421 0.24205607476635513 0.4903560830860534 0.2411214953271028 0.4903560830860534 0.24018691588785046 0.4910979228486647 0.23925233644859814 0.4903560830860534 0.23925233644859814 0.4903560830860534 0.2411214953271028 0.4896142433234421 0.24205607476635513 0.48887240356083084 0.24205607476635513 0.4873887240356083 0.24392523364485982 0.48590504451038574 0.24205607476635513 0.48516320474777447 0.24205607476635513 0.4844213649851632 0.2411214953271028 0.48590504451038574 0.23925233644859814 0.4873887240356083 0.2411214953271028 0.48887240356083084 0.23925233644859814 0.48813056379821956 0.23925233644859814 0.48813056379821956 0.24018691588785046 0.4873887240356083 0.2411214953271028 0.48516320474777447 0.2383177570093458 0.48590504451038574 0.23738317757009345 0.48516320474777447 0.23644859813084113 0.48516320474777447 0.23551401869158878 0.48590504451038574 0.23457943925233646 0.48516320474777447 0.23457943925233646 0.4844213649851632 0.2336448598130841 0.4836795252225519 0.23457943925233646 0.4821958456973294 0.23271028037383176 